************************************************************
  HS Scan of (1) Internal mercury lamp
************************************************************
Integration time is 0.2294 seconds per sample
dh010617El Arenosillo 37.1 6.73 3.018777pr1000
************************************************************
Dead Time -------------------------  2.6E-08 
Number of Cycles Used -------------  4 
Starting Wavelength (Angstroms) ---  2950 
Final Wavelength (Angstoms) -------  2984 
Wavelength Increment (Angstroms) --  .25 
Filter Wheel #1 Position ---------- (1) Ground quartz diffuser (ND=2.32)
Filter Wheel #2 Position ---------- (1) Neutral Density 0.494



************************************************************
HS scan start time = 01:56:10
Dark Count =  1.9 


Time (GMT)  Wavelength (Ang)  Step Number  Raw Counts  Counts/Second

  116.52        2950.00           1237          69.00       292.50
  116.59        2950.25           1240          80.00       340.46
  116.62        2950.50           1244          67.00       283.79
  116.65        2950.75           1247          68.00       288.15
  116.68        2951.00           1250          71.00       301.22
  116.71        2951.25           1254          76.00       323.02
  116.73        2951.50           1257          67.00       283.79
  116.76        2951.75           1260          74.00       314.30
  116.79        2952.00           1264          70.00       296.86
  116.82        2952.25           1267          78.00       331.74
  116.84        2952.50           1270          78.00       331.74
  116.87        2952.75           1273          73.00       309.94
  116.90        2953.00           1277          79.00       336.10
  116.93        2953.25           1280          71.00       301.22
  116.96        2953.50           1283          70.00       296.86
  116.98        2953.75           1287          77.00       327.38
  117.01        2954.00           1290          80.00       340.46
  117.04        2954.25           1293          75.00       318.66
  117.07        2954.50           1297          84.00       357.89
  117.10        2954.75           1300          80.00       340.46
  117.12        2955.00           1303          86.00       366.61
  117.15        2955.25           1307          84.00       357.89
  117.18        2955.50           1310          80.00       340.46
  117.21        2955.75           1313          90.00       384.05
  117.23        2956.00           1317          88.00       375.33
  117.26        2956.25           1320          89.00       379.69
  117.29        2956.50           1323          90.00       384.05
  117.32        2956.75           1326          95.00       405.85
  117.35        2957.00           1330          99.00       423.28
  117.37        2957.25           1333         117.00       501.75
  117.40        2957.50           1336         108.00       462.52
  117.43        2957.75           1340         119.00       510.47
  117.46        2958.00           1343         120.00       514.83
  117.49        2958.25           1346         127.00       545.34
  117.51        2958.50           1350         147.00       632.53
  117.54        2958.75           1353         155.00       667.40
  117.57        2959.00           1356         170.00       732.80
  117.60        2959.25           1360         228.00       985.64
  117.63        2959.50           1363         414.00      1796.51
  117.65        2959.75           1366         525.00      2280.43
  117.68        2960.00           1370         704.00      3060.84
  117.71        2960.25           1373         947.00      4120.32
  117.74        2960.50           1376        1105.00      4809.23
  117.76        2960.75           1380        1304.00      5676.95
  117.79        2961.00           1383        1717.00      7477.91
  117.82        2961.25           1386        3571.00     15564.71
  117.85        2961.50           1390        9102.00     39710.11
  117.88        2961.75           1393       14519.00     63387.29
  117.90        2962.00           1396       19663.00     85898.26
  117.93        2962.25           1399       25057.00    109531.60
  117.96        2962.50           1403       33881.00    148256.10
  117.99        2962.75           1406       39341.00    172256.70
  118.02        2963.00           1409       45813.00    200744.70
  118.04        2963.25           1413       53631.00    235214.00
  118.07        2963.50           1416       59914.00    262960.50
  118.10        2963.75           1419       66765.00    293261.20
  118.13        2964.00           1423       74603.00    327986.00
  118.16        2964.25           1426       79987.00    351875.50
  118.18        2964.50           1429       85995.00    378568.90
  118.21        2964.75           1433       94176.00    414976.90
  118.24        2965.00           1436       99903.00    440505.10
  118.27        2965.25           1439      106130.00    468300.80
  118.30        2965.50           1443      114211.00    504432.70
  118.32        2965.75           1446      120171.00    531125.00
  118.35        2966.00           1449      125269.00    553986.40
  118.38        2966.25           1453      131740.00    583044.30
  118.41        2966.50           1456      134284.00    594480.20
  118.44        2966.75           1459      134737.00    596517.30
  118.46        2967.00           1463      134825.00    596913.00
  118.49        2967.25           1466      135032.00    597844.00
  118.52        2967.50           1469      133470.00    590820.30
  118.55        2967.75           1473      129548.00    573196.10
  118.58        2968.00           1476      123788.00    547342.10
  118.60        2968.25           1479      116748.00    515790.30
  118.63        2968.50           1483      107860.00    476030.20
  118.66        2968.75           1486      101661.00    448348.30
  118.69        2969.00           1489       95781.00    422127.70
  118.72        2969.25           1493       88422.00    389362.50
  118.74        2969.50           1496       82694.00    363898.00
  118.77        2969.75           1499       76188.00    335015.80
  118.80        2970.00           1502       70603.00    310256.90
  118.83        2970.25           1506       62234.00    273216.00
  118.86        2970.50           1509       55264.00    242421.60
  118.88        2970.75           1512       49475.00    216882.60
  118.91        2971.00           1516       40959.00    179374.70
  118.94        2971.25           1519       35105.00    153633.80
  118.97        2971.50           1522       28616.00    125141.00
  119.00        2971.75           1526       20391.00     89086.24
  119.02        2972.00           1529       13830.00     60374.12
  119.05        2972.25           1532        7422.00     32372.93
  119.08        2972.50           1536        2659.00     11586.32
  119.11        2972.75           1539        1601.00      6972.06
  119.14        2973.00           1542        1231.00      5358.64
  119.16        2973.25           1546        1090.00      4743.83
  119.19        2973.50           1549         867.00      3771.51
  119.22        2973.75           1552         667.00      2899.52
  119.25        2974.00           1556         523.00      2271.71
  119.27        2974.25           1559         335.00      1452.10
  119.30        2974.50           1562         234.00      1011.80
  119.33        2974.75           1566         174.00       750.23
  119.36        2975.00           1569         162.00       697.92
  119.39        2975.25           1572         141.00       606.37
  119.41        2975.50           1576         147.00       632.53
  119.44        2975.75           1579         130.00       558.42
  119.47        2976.00           1582         120.00       514.83
  119.50        2976.25           1586         120.00       514.83
  119.53        2976.50           1589         109.00       466.88
  119.55        2976.75           1592         105.00       449.44
  119.58        2977.00           1596         110.00       471.24
  119.61        2977.25           1599         101.00       432.00
  119.64        2977.50           1602         105.00       449.44
  119.66        2977.75           1606          91.00       388.41
  119.69        2978.00           1609          92.00       392.77
  119.72        2978.25           1612          81.00       344.82
  119.75        2978.50           1616          92.00       392.77
  119.78        2978.75           1619          79.00       336.10
  119.80        2979.00           1622          84.00       357.89
  119.83        2979.25           1626          82.00       349.17
  119.86        2979.50           1629          86.00       366.61
  119.89        2979.75           1632          77.00       327.38
  119.92        2980.00           1636          74.00       314.30
  119.95        2980.25           1639          80.00       340.46
  119.98        2980.50           1642          80.00       340.46
  120.00        2980.75           1646          79.00       336.10
  120.03        2981.00           1649          75.00       318.66
  120.06        2981.25           1652          71.00       301.22
  120.09        2981.50           1656          73.00       309.94
  120.11        2981.75           1659          80.00       340.46
  120.14        2982.00           1662          75.00       318.66
  120.17        2982.25           1666          80.00       340.46
  120.20        2982.50           1669          76.00       323.02
  120.23        2982.75           1672          77.00       327.38
  120.25        2983.00           1676          78.00       331.74
  120.28        2983.25           1679          64.00       270.71
  120.31        2983.50           1682          76.00       323.02
  120.34        2983.75           1686          74.00       314.30
  120.36        2984.00           1689          77.00       327.38
HS scan finished at 02:00:32
end
************************************************************
  HS Scan of (1) Internal mercury lamp
************************************************************
Integration time is 0.2294 seconds per sample
dh010617El Arenosillo 37.1 6.73 3.555258pr1000
************************************************************
Dead Time -------------------------  2.6E-08 
Number of Cycles Used -------------  4 
Starting Wavelength (Angstroms) ---  2950 
Final Wavelength (Angstoms) -------  2984 
Wavelength Increment (Angstroms) --  .25 
Filter Wheel #1 Position ---------- (1) Ground quartz diffuser (ND=2.32)
Filter Wheel #2 Position ---------- (1) Neutral Density 0.494



************************************************************
HS scan start time = 12:22:29
Dark Count =  18 


Time (GMT)  Wavelength (Ang)  Step Number  Raw Counts  Counts/Second

  742.84        2950.00           1237         188.00       741.08
  742.90        2950.25           1240         191.00       754.16
  742.93        2950.50           1244         205.00       815.19
  742.96        2950.75           1247         184.00       723.64
  742.99        2951.00           1250         177.00       693.12
  743.02        2951.25           1254         184.00       723.64
  743.04        2951.50           1257         188.00       741.08
  743.07        2951.75           1260         202.00       802.11
  743.10        2952.00           1264         191.00       754.16
  743.13        2952.25           1267         189.00       745.44
  743.16        2952.50           1270         203.00       806.47
  743.18        2952.75           1273         187.00       736.72
  743.21        2953.00           1277         190.00       749.80
  743.24        2953.25           1280         186.00       732.36
  743.27        2953.50           1283         206.00       819.55
  743.29        2953.75           1287         201.00       797.75
  743.32        2954.00           1290         183.00       719.28
  743.35        2954.25           1293         188.00       741.08
  743.38        2954.50           1297         200.00       793.39
  743.41        2954.75           1300         188.00       741.08
  743.43        2955.00           1303         195.00       771.59
  743.46        2955.25           1307         186.00       732.36
  743.49        2955.50           1310         190.00       749.80
  743.52        2955.75           1313         209.00       832.62
  743.55        2956.00           1317         199.00       789.03
  743.57        2956.25           1320         221.00       884.94
  743.60        2956.50           1323         225.00       902.38
  743.63        2956.75           1326         226.00       906.73
  743.66        2957.00           1330         226.00       906.73
  743.68        2957.25           1333         229.00       919.81
  743.71        2957.50           1336         230.00       924.17
  743.74        2957.75           1340         257.00      1041.88
  743.77        2958.00           1343         279.00      1137.78
  743.80        2958.25           1346         270.00      1098.55
  743.82        2958.50           1350         276.00      1124.71
  743.85        2958.75           1353         303.00      1242.41
  743.88        2959.00           1356         346.00      1429.87
  743.91        2959.25           1360         446.00      1865.83
  743.93        2959.50           1363         700.00      2973.20
  743.96        2959.75           1366         937.00      4006.52
  743.99        2960.00           1370        1166.00      5005.01
  744.02        2960.25           1373        1510.00      6505.02
  744.05        2960.50           1376        1780.00      7682.44
  744.07        2960.75           1380        2054.00      8877.38
  744.10        2961.00           1383        2424.00     10491.09
  744.13        2961.25           1386        3363.00     14587.05
  744.16        2961.50           1390        9209.00     40107.19
  744.19        2961.75           1393       16760.00     73120.58
  744.21        2962.00           1396       24825.00    108444.00
  744.24        2962.25           1399       33836.00    147987.70
  744.27        2962.50           1403       46832.00    205163.00
  744.30        2962.75           1406       56049.00    245816.30
  744.33        2963.00           1409       64598.00    283600.50
  744.35        2963.25           1413       76666.00    337064.80
  744.38        2963.50           1416       85309.00    375447.50
  744.41        2963.75           1419       94129.00    414695.80
  744.44        2964.00           1423      106193.00    468510.30
  744.47        2964.25           1426      115482.00    510049.70
  744.49        2964.50           1429      125019.00    552792.40
  744.52        2964.75           1433      137553.00    609112.80
  744.55        2965.00           1436      145636.00    645521.50
  744.58        2965.25           1439      154246.00    684380.50
  744.61        2965.50           1443      166192.00    738427.30
  744.63        2965.75           1446      174168.00    774598.40
  744.66        2966.00           1449      182697.00    813353.50
  744.69        2966.25           1453      192707.00    858939.00
  744.72        2966.50           1456      196564.00    876533.10
  744.75        2966.75           1459      197277.00    879787.20
  744.77        2967.00           1463      197446.00    880558.80
  744.80        2967.25           1466      197213.00    879495.10
  744.83        2967.50           1469      196816.00    877683.20
  744.86        2967.75           1473      192120.00    856262.90
  744.89        2968.00           1476      184534.00    821711.00
  744.91        2968.25           1479      175157.00    779088.30
  744.94        2968.50           1483      163269.00    725188.70
  744.97        2968.75           1486      153986.00    683205.90
  745.00        2969.00           1489      145241.00    643740.60
  745.03        2969.25           1493      132847.00    587947.40
  745.05        2969.50           1496      123427.00    545650.80
  745.08        2969.75           1499      115059.00    508156.20
  745.11        2970.00           1502      105218.00    464155.40
  745.14        2970.25           1506       93524.00    412001.00
  745.17        2970.50           1509       84750.00    372962.70
  745.19        2970.75           1512       76057.00    334363.30
  745.22        2971.00           1516       62953.00    276324.20
  745.25        2971.25           1519       52256.00    229076.10
  745.28        2971.50           1522       41905.00    183466.80
  745.31        2971.75           1526       29850.00    130485.50
  745.33        2972.00           1529       21773.00     95069.06
  745.36        2972.25           1532       13462.00     58694.56
  745.39        2972.50           1536        4866.00     21145.01
  745.42        2972.75           1539        2713.00     11751.63
  745.45        2973.00           1542        2096.00      9060.55
  745.47        2973.25           1546        1774.00      7656.28
  745.50        2973.50           1549        1429.00      6151.81
  745.53        2973.75           1552        1141.00      4896.00
  745.56        2974.00           1556         911.00      3893.16
  745.59        2974.25           1559         603.00      2550.30
  745.61        2974.50           1562         451.00      1887.63
  745.64        2974.75           1566         349.00      1442.95
  745.67        2975.00           1569         302.00      1238.05
  745.70        2975.25           1572         259.00      1050.60
  745.73        2975.50           1576         277.00      1129.07
  745.75        2975.75           1579         261.00      1059.31
  745.78        2976.00           1582         255.00      1033.16
  745.81        2976.25           1586         229.00       919.81
  745.84        2976.50           1589         241.00       972.13
  745.86        2976.75           1592         251.00      1015.72
  745.89        2977.00           1596         229.00       919.81
  745.92        2977.25           1599         222.00       889.30
  745.95        2977.50           1602         225.00       902.38
  745.97        2977.75           1606         212.00       845.70
  746.00        2978.00           1609         222.00       889.30
  746.03        2978.25           1612         205.00       815.19
  746.06        2978.50           1616         198.00       784.67
  746.09        2978.75           1619         197.00       780.31
  746.11        2979.00           1622         200.00       793.39
  746.14        2979.25           1626         192.00       758.52
  746.17        2979.50           1629         191.00       754.16
  746.20        2979.75           1632         193.00       762.87
  746.23        2980.00           1636         189.00       745.44
  746.25        2980.25           1639         166.00       645.17
  746.28        2980.50           1642         190.00       749.80
  746.31        2980.75           1646         187.00       736.72
  746.34        2981.00           1649         188.00       741.08
  746.36        2981.25           1652         174.00       680.05
  746.39        2981.50           1656         174.00       680.05
  746.42        2981.75           1659         161.00       623.38
  746.45        2982.00           1662         166.00       645.17
  746.47        2982.25           1666         176.00       688.77
  746.50        2982.50           1669         169.00       658.25
  746.53        2982.75           1672         184.00       723.64
  746.56        2983.00           1676         187.00       736.72
  746.58        2983.25           1679         162.00       627.73
  746.61        2983.50           1682         167.00       649.53
  746.64        2983.75           1686         166.00       645.17
  746.67        2984.00           1689         175.00       684.41
HS scan finished at 12:26:51
end
************************************************************
  HS Scan of (1) Internal mercury lamp
************************************************************
Integration time is 0.2294 seconds per sample
dh010617El Arenosillo 37.1 6.73 3.179721pr1000
************************************************************
Dead Time -------------------------  2.6E-08 
Number of Cycles Used -------------  4 
Starting Wavelength (Angstroms) ---  2950 
Final Wavelength (Angstoms) -------  2984 
Wavelength Increment (Angstroms) --  .25 
Filter Wheel #1 Position ---------- (1) Ground quartz diffuser (ND=2.32)
Filter Wheel #2 Position ---------- (1) Neutral Density 0.494



************************************************************
HS scan start time = 21:36:49
Dark Count =  7.7 


Time (GMT)  Wavelength (Ang)  Step Number  Raw Counts  Counts/Second

 1297.17        2950.00           1237         200.00       838.29
 1297.24        2950.25           1240         186.00       777.26
 1297.27        2950.50           1244         183.00       764.18
 1297.29        2950.75           1247         188.00       785.98
 1297.32        2951.00           1250         188.00       785.98
 1297.35        2951.25           1254         191.00       799.06
 1297.38        2951.50           1257         201.00       842.65
 1297.41        2951.75           1260         184.00       768.54
 1297.43        2952.00           1264         179.00       746.75
 1297.46        2952.25           1267         194.00       812.14
 1297.49        2952.50           1270         186.00       777.26
 1297.52        2952.75           1273         178.00       742.39
 1297.55        2953.00           1277         187.00       781.62
 1297.57        2953.25           1280         195.00       816.50
 1297.60        2953.50           1283         198.00       829.57
 1297.63        2953.75           1287         206.00       864.45
 1297.66        2954.00           1290         196.00       820.85
 1297.68        2954.25           1293         187.00       781.62
 1297.71        2954.50           1297         183.00       764.18
 1297.74        2954.75           1300         201.00       842.65
 1297.77        2955.00           1303         203.00       851.37
 1297.80        2955.25           1307         215.00       903.68
 1297.82        2955.50           1310         197.00       825.21
 1297.85        2955.75           1313         209.00       877.53
 1297.88        2956.00           1317         208.00       873.17
 1297.91        2956.25           1320         215.00       903.68
 1297.94        2956.50           1323         213.00       894.96
 1297.96        2956.75           1326         214.00       899.32
 1297.99        2957.00           1330         222.00       934.20
 1298.02        2957.25           1333         219.00       921.12
 1298.05        2957.50           1336         238.00      1003.95
 1298.07        2957.75           1340         239.00      1008.31
 1298.10        2958.00           1343         254.00      1073.70
 1298.13        2958.25           1346         271.00      1147.81
 1298.16        2958.50           1350         276.00      1169.61
 1298.19        2958.75           1353         303.00      1287.31
 1298.21        2959.00           1356         340.00      1448.62
 1298.24        2959.25           1360         472.00      2024.08
 1298.27        2959.50           1363         726.00      3131.47
 1298.30        2959.75           1366         980.00      4238.92
 1298.33        2960.00           1370        1217.00      5272.30
 1298.35        2960.25           1373        1564.00      6785.42
 1298.38        2960.50           1376        1784.00      7744.80
 1298.41        2960.75           1380        2049.00      8900.49
 1298.44        2961.00           1383        2385.00     10365.92
 1298.47        2961.25           1386        2750.00     11957.95
 1298.49        2961.50           1390        4986.00     21713.65
 1298.52        2961.75           1393        9552.00     41650.57
 1298.55        2962.00           1396       16443.00     71778.57
 1298.58        2962.25           1399       24943.00    109006.40
 1298.60        2962.50           1403       37036.00    162095.40
 1298.63        2962.75           1406       46845.00    205265.60
 1298.66        2963.00           1409       56331.00    247106.90
 1298.69        2963.25           1413       69108.00    303609.10
 1298.72        2963.50           1416       78551.00    345475.10
 1298.74        2963.75           1419       87991.00    387419.50
 1298.77        2964.00           1423      100772.00    444355.80
 1298.80        2964.25           1426      109828.00    484800.90
 1298.83        2964.50           1429      118966.00    525699.30
 1298.86        2964.75           1433      131072.00    580016.50
 1298.88        2965.00           1436      138993.00    615640.30
 1298.92        2965.25           1439      147772.00    655200.80
 1298.95        2965.50           1443      158821.00    705107.50
 1298.98        2965.75           1446      166081.00    737971.00
 1299.01        2966.00           1449      175057.00    778681.00
 1299.04        2966.25           1453      186238.00    829513.60
 1299.06        2966.50           1456      192390.00    857540.80
 1299.09        2966.75           1459      194913.00    869046.90
 1299.12        2967.00           1463      195392.00    871232.20
 1299.15        2967.25           1466      195105.00    869922.80
 1299.17        2967.50           1469      194944.00    869188.40
 1299.20        2967.75           1473      191474.00    853365.00
 1299.23        2968.00           1476      186332.00    829941.60
 1299.26        2968.25           1479      179866.00    800527.70
 1299.29        2968.50           1483      169673.00    754251.90
 1299.31        2968.75           1486      161651.00    717911.20
 1299.34        2969.00           1489      153590.00    681463.50
 1299.37        2969.25           1493      142037.00    629348.10
 1299.40        2969.50           1496      132510.00    586478.80
 1299.43        2969.75           1499      123637.00    546638.80
 1299.45        2970.00           1502      113737.00    502285.50
 1299.48        2970.25           1506      101491.00    447563.80
 1299.51        2970.50           1509       91950.00    405037.80
 1299.54        2970.75           1512       82099.00    361229.00
 1299.57        2971.00           1516       69778.00    306576.50
 1299.59        2971.25           1519       61661.00    270656.90
 1299.62        2971.50           1522       52287.00    229258.30
 1299.65        2971.75           1526       40111.00    175618.30
 1299.68        2972.00           1529       31613.00    138270.00
 1299.71        2972.25           1532       23497.00    102668.20
 1299.73        2972.50           1536       12678.00     55311.83
 1299.76        2972.75           1539        6069.00     26440.58
 1299.79        2973.00           1542        3002.00     13057.18
 1299.82        2973.25           1546        2065.00      8970.27
 1299.84        2973.50           1549        1639.00      7112.48
 1299.87        2973.75           1552        1344.00      5826.08
 1299.90        2974.00           1556        1002.00      4334.84
 1299.93        2974.25           1559         735.00      3170.71
 1299.96        2974.50           1562         536.00      2303.10
 1299.98        2974.75           1566         402.00      1718.91
 1300.01        2975.00           1569         316.00      1343.99
 1300.04        2975.25           1572         293.00      1243.72
 1300.07        2975.50           1576         286.00      1213.20
 1300.10        2975.75           1579         270.00      1143.45
 1300.12        2976.00           1582         263.00      1112.94
 1300.15        2976.25           1586         272.00      1152.17
 1300.18        2976.50           1589         247.00      1043.18
 1300.21        2976.75           1592         249.00      1051.90
 1300.23        2977.00           1596         235.00       990.87
 1300.26        2977.25           1599         218.00       916.76
 1300.29        2977.50           1602         203.00       851.37
 1300.32        2977.75           1606         213.00       894.96
 1300.35        2978.00           1609         216.00       908.04
 1300.37        2978.25           1612         206.00       864.45
 1300.40        2978.50           1616         215.00       903.68
 1300.43        2978.75           1619         210.00       881.89
 1300.46        2979.00           1622         198.00       829.57
 1300.49        2979.25           1626         193.00       807.78
 1300.51        2979.50           1629         196.00       820.85
 1300.54        2979.75           1632         199.00       833.93
 1300.57        2980.00           1636         175.00       729.31
 1300.60        2980.25           1639         184.00       768.54
 1300.62        2980.50           1642         189.00       790.34
 1300.65        2980.75           1646         194.00       812.14
 1300.68        2981.00           1649         182.00       759.82
 1300.71        2981.25           1652         181.00       755.46
 1300.74        2981.50           1656         182.00       759.82
 1300.76        2981.75           1659         186.00       777.26
 1300.79        2982.00           1662         184.00       768.54
 1300.82        2982.25           1666         195.00       816.50
 1300.85        2982.50           1669         175.00       729.31
 1300.88        2982.75           1672         177.00       738.03
 1300.90        2983.00           1676         182.00       759.82
 1300.93        2983.25           1679         196.00       820.85
 1300.96        2983.50           1682         172.00       716.23
 1300.99        2983.75           1686         186.00       777.26
 1301.01        2984.00           1689         184.00       768.54
HS scan finished at 21:41:11
end
