************************************************************
  HS Scan of (1) Internal mercury lamp
************************************************************
Integration time is 0.2294 seconds per sample
dh310517El Arenosillo 37.1 6.73 3.072425pr1000
************************************************************
Dead Time -------------------------  2.6E-08 
Number of Cycles Used -------------  4 
Starting Wavelength (Angstroms) ---  2950 
Final Wavelength (Angstoms) -------  2984 
Wavelength Increment (Angstroms) --  .25 
Filter Wheel #1 Position ---------- (1) Ground quartz diffuser (ND=2.32)
Filter Wheel #2 Position ---------- (1) Neutral Density 0.494



************************************************************
HS scan start time = 21:38:01
Dark Count =  2 


Time (GMT)  Wavelength (Ang)  Step Number  Raw Counts  Counts/Second

 1298.38        2950.00           1237          73.00       309.51
 1298.44        2950.25           1240          71.00       300.79
 1298.47        2950.50           1244          70.00       296.43
 1298.50        2950.75           1247          70.00       296.43
 1298.52        2951.00           1250          77.00       326.94
 1298.55        2951.25           1254          69.00       292.07
 1298.58        2951.50           1257          75.00       318.22
 1298.61        2951.75           1260          74.00       313.86
 1298.63        2952.00           1264          74.00       313.86
 1298.66        2952.25           1267          73.00       309.51
 1298.69        2952.50           1270          80.00       340.02
 1298.72        2952.75           1273          80.00       340.02
 1298.75        2953.00           1277          70.00       296.43
 1298.77        2953.25           1280          79.00       335.66
 1298.80        2953.50           1283          74.00       313.86
 1298.83        2953.75           1287          73.00       309.51
 1298.86        2954.00           1290          75.00       318.22
 1298.89        2954.25           1293          86.00       366.18
 1298.91        2954.50           1297          75.00       318.22
 1298.94        2954.75           1300          89.00       379.25
 1298.97        2955.00           1303          82.00       348.74
 1299.00        2955.25           1307          92.00       392.33
 1299.02        2955.50           1310          77.00       326.94
 1299.05        2955.75           1313          85.00       361.82
 1299.08        2956.00           1317          92.00       392.33
 1299.11        2956.25           1320          93.00       396.69
 1299.13        2956.50           1323          96.00       409.77
 1299.16        2956.75           1326          97.00       414.13
 1299.19        2957.00           1330         101.00       431.57
 1299.22        2957.25           1333         105.00       449.00
 1299.25        2957.50           1336         102.00       435.92
 1299.27        2957.75           1340         113.00       483.88
 1299.30        2958.00           1343         116.00       496.96
 1299.33        2958.25           1346         132.00       566.70
 1299.36        2958.50           1350         131.00       562.34
 1299.39        2958.75           1353         145.00       623.38
 1299.41        2959.00           1356         150.00       645.17
 1299.44        2959.25           1360         185.00       797.75
 1299.47        2959.50           1363         322.00      1394.99
 1299.50        2959.75           1366         473.00      2053.29
 1299.52        2960.00           1370         598.00      2598.26
 1299.55        2960.25           1373         844.00      3670.80
 1299.58        2960.50           1376         987.00      4294.29
 1299.61        2960.75           1380        1177.00      5122.74
 1299.64        2961.00           1383        1411.00      6143.09
 1299.66        2961.25           1386        1611.00      7015.23
 1299.69        2961.50           1390        2778.00     12104.94
 1299.72        2961.75           1393        6262.00     27307.96
 1299.75        2962.00           1396       10826.00     47241.96
 1299.77        2962.25           1399       16770.00     73234.35
 1299.80        2962.50           1403       24597.00    107514.60
 1299.83        2962.75           1406       30336.00    132688.90
 1299.86        2963.00           1409       36223.00    158546.70
 1299.89        2963.25           1413       43617.00    191073.30
 1299.91        2963.50           1416       49729.00    218002.00
 1299.94        2963.75           1419       55985.00    245604.40
 1299.97        2964.00           1423       65082.00    285812.60
 1300.00        2964.25           1426       71683.00    315041.70
 1300.03        2964.50           1429       78307.00    344417.50
 1300.05        2964.75           1433       86928.00    382717.10
 1300.08        2965.00           1436       93151.00    410411.00
 1300.11        2965.25           1439       99905.00    440513.60
 1300.14        2965.50           1443      107419.00    474059.20
 1300.17        2965.75           1446      113448.00    501017.80
 1300.19        2966.00           1449      119095.00    526302.80
 1300.22        2966.25           1453      125893.00    556786.00
 1300.25        2966.50           1456      131661.00    582688.80
 1300.28        2966.75           1459      134524.00    595559.00
 1300.31        2967.00           1463      135515.00    600015.90
 1300.33        2967.25           1466      135412.00    599552.60
 1300.36        2967.50           1469      135541.00    600132.80
 1300.39        2967.75           1473      134037.00    593369.20
 1300.42        2968.00           1476      131193.00    580585.90
 1300.45        2968.25           1479      125904.00    556835.40
 1300.47        2968.50           1483      117803.00    520514.80
 1300.50        2968.75           1486      110975.00    489955.20
 1300.53        2969.00           1489      104609.00    461507.30
 1300.56        2969.25           1493       95904.00    422675.50
 1300.59        2969.50           1496       89386.00    393651.00
 1300.62        2969.75           1499       83658.00    368180.70
 1300.64        2970.00           1502       77904.00    342629.00
 1300.67        2970.25           1506       69109.00    303638.80
 1300.70        2970.50           1509       62777.00    275616.70
 1300.73        2970.75           1512       56694.00    248735.10
 1300.76        2971.00           1516       48785.00    213840.40
 1300.78        2971.25           1519       42070.00    184263.40
 1300.81        2971.50           1522       35185.00    153984.90
 1300.84        2971.75           1526       26845.00    117371.60
 1300.87        2972.00           1529       21007.00     91783.72
 1300.89        2972.25           1532       15446.00     67441.61
 1300.92        2972.50           1536        7541.00     32892.11
 1300.95        2972.75           1539        3317.00     14456.18
 1300.98        2973.00           1542        1671.00      7276.88
 1301.01        2973.25           1546        1217.00      5297.16
 1301.03        2973.50           1549         973.00      4233.25
 1301.06        2973.75           1552         784.00      3409.20
 1301.09        2974.00           1556         637.00      2768.29
 1301.12        2974.25           1559         369.00      1599.89
 1301.15        2974.50           1562         277.00      1198.82
 1301.17        2974.75           1566         191.00       823.91
 1301.20        2975.00           1569         163.00       701.84
 1301.23        2975.25           1572         141.00       605.94
 1301.26        2975.50           1576         130.00       557.99
 1301.28        2975.75           1579         130.00       557.99
 1301.31        2976.00           1582         125.00       536.19
 1301.34        2976.25           1586         142.00       610.30
 1301.37        2976.50           1589         122.00       523.11
 1301.40        2976.75           1592         110.00       470.80
 1301.42        2977.00           1596         111.00       475.16
 1301.45        2977.25           1599         105.00       449.00
 1301.48        2977.50           1602          95.00       405.41
 1301.51        2977.75           1606          90.00       383.61
 1301.54        2978.00           1609         102.00       435.92
 1301.56        2978.25           1612          91.00       387.97
 1301.59        2978.50           1616          93.00       396.69
 1301.62        2978.75           1619          83.00       353.10
 1301.65        2979.00           1622          86.00       366.18
 1301.68        2979.25           1626          86.00       366.18
 1301.70        2979.50           1629          83.00       353.10
 1301.73        2979.75           1632          78.00       331.30
 1301.76        2980.00           1636          83.00       353.10
 1301.79        2980.25           1639          75.00       318.22
 1301.82        2980.50           1642          77.00       326.94
 1301.84        2980.75           1646          74.00       313.86
 1301.87        2981.00           1649          77.00       326.94
 1301.90        2981.25           1652          75.00       318.22
 1301.93        2981.50           1656          78.00       331.30
 1301.96        2981.75           1659          79.00       335.66
 1301.98        2982.00           1662          70.00       296.43
 1302.01        2982.25           1666          72.00       305.15
 1302.04        2982.50           1669          73.00       309.51
 1302.07        2982.75           1672          70.00       296.43
 1302.10        2983.00           1676          66.00       278.99
 1302.13        2983.25           1679          80.00       340.02
 1302.15        2983.50           1682          69.00       292.07
 1302.18        2983.75           1686          77.00       326.94
 1302.21        2984.00           1689          76.00       322.58
HS scan finished at 21:42:23
end
