************************************************************
  HS Scan of (1) Internal mercury lamp
************************************************************
Integration time is 0.2294 seconds per sample
dh020617El Arenosillo 37.1 6.73 3.072425pr1000
************************************************************
Dead Time -------------------------  2.6E-08 
Number of Cycles Used -------------  4 
Starting Wavelength (Angstroms) ---  2950 
Final Wavelength (Angstoms) -------  2984 
Wavelength Increment (Angstroms) --  .25 
Filter Wheel #1 Position ---------- (1) Ground quartz diffuser (ND=2.32)
Filter Wheel #2 Position ---------- (1) Neutral Density 0.494



************************************************************
HS scan start time = 01:09:01
Dark Count =  5.8 


Time (GMT)  Wavelength (Ang)  Step Number  Raw Counts  Counts/Second

   69.37        2950.00           1237         193.00       816.06
   69.44        2950.25           1240         191.00       807.34
   69.47        2950.50           1244         193.00       816.06
   69.49        2950.75           1247         197.00       833.50
   69.52        2951.00           1250         205.00       868.37
   69.55        2951.25           1254         199.00       842.22
   69.58        2951.50           1257         192.00       811.70
   69.60        2951.75           1260         195.00       824.78
   69.63        2952.00           1264         192.00       811.70
   69.66        2952.25           1267         202.00       855.29
   69.69        2952.50           1270         193.00       816.06
   69.71        2952.75           1273         196.00       829.14
   69.74        2953.00           1277         211.00       894.53
   69.77        2953.25           1280         200.00       846.57
   69.80        2953.50           1283         197.00       833.50
   69.83        2953.75           1287         198.00       837.86
   69.85        2954.00           1290         212.00       898.89
   69.88        2954.25           1293         197.00       833.50
   69.91        2954.50           1297         205.00       868.37
   69.94        2954.75           1300         218.00       925.04
   69.97        2955.00           1303         194.00       820.42
   69.99        2955.25           1307         215.00       911.97
   70.02        2955.50           1310         212.00       898.89
   70.05        2955.75           1313         223.00       946.84
   70.08        2956.00           1317         220.00       933.76
   70.11        2956.25           1320         224.00       951.20
   70.13        2956.50           1323         240.00      1020.95
   70.16        2956.75           1326         228.00       968.64
   70.19        2957.00           1330         235.00       999.15
   70.22        2957.25           1333         236.00      1003.51
   70.24        2957.50           1336         234.00       994.79
   70.27        2957.75           1340         269.00      1147.38
   70.30        2958.00           1343         247.00      1051.47
   70.33        2958.25           1346         263.00      1121.22
   70.36        2958.50           1350         255.00      1086.34
   70.38        2958.75           1353         293.00      1252.00
   70.41        2959.00           1356         378.00      1622.56
   70.44        2959.25           1360         545.00      2350.62
   70.47        2959.50           1363         781.00      3379.55
   70.49        2959.75           1366        1016.00      4404.17
   70.52        2960.00           1370        1295.00      5620.70
   70.55        2960.25           1373        1582.00      6872.20
   70.58        2960.50           1376        1813.00      7879.56
   70.61        2960.75           1380        2070.00      9000.36
   70.63        2961.00           1383        2274.00      9890.08
   70.66        2961.25           1386        2549.00     11089.51
   70.69        2961.50           1390        3122.00     13588.93
   70.72        2961.75           1393        5890.00     25667.52
   70.75        2962.00           1396       11401.00     49738.21
   70.77        2962.25           1399       20505.00     89568.41
   70.80        2962.50           1403       32445.00    141931.70
   70.83        2962.75           1406       41428.00    181421.30
   70.86        2963.00           1409       51361.00    225182.00
   70.89        2963.25           1413       65209.00    286357.80
   70.91        2963.50           1416       74665.00    328243.70
   70.94        2963.75           1419       83407.00    367048.60
   70.97        2964.00           1423       93858.00    413543.00
   71.00        2964.25           1426      101797.00    448937.70
   71.02        2964.50           1429      110576.00    488153.90
   71.06        2964.75           1433      121928.00    538983.40
   71.09        2965.00           1436      129838.00    574481.30
   71.11        2965.25           1439      139203.00    616594.30
   71.14        2965.50           1443      149578.00    663358.00
   71.17        2965.75           1446      156855.00    696226.40
   71.20        2966.00           1449      164657.00    731529.20
   71.23        2966.25           1453      174494.00    776133.60
   71.25        2966.50           1456      181679.00    808779.10
   71.28        2966.75           1459      186249.00    829572.30
   71.31        2967.00           1463      186668.00    831479.90
   71.34        2967.25           1466      187022.00    833091.80
   71.37        2967.50           1469      187040.00    833173.70
   71.39        2967.75           1473      185453.00    825949.00
   71.42        2968.00           1476      181406.00    807537.80
   71.45        2968.25           1479      175308.00    779829.30
   71.48        2968.50           1483      165075.00    733422.50
   71.51        2968.75           1486      156560.00    694892.80
   71.53        2969.00           1489      149125.00    661313.60
   71.56        2969.25           1493      137008.00    606715.30
   71.59        2969.50           1496      129110.00    571211.50
   71.62        2969.75           1499      121025.00    534935.30
   71.65        2970.00           1502      112483.00    496683.20
   71.67        2970.25           1506      100353.00    442495.00
   71.70        2970.50           1509       92064.00    405553.80
   71.73        2970.75           1512       83590.00    367861.70
   71.76        2971.00           1516       72877.00    320316.60
   71.79        2971.25           1519       64166.00    281743.30
   71.81        2971.50           1522       55805.00    244792.90
   71.84        2971.75           1526       43738.00    191589.30
   71.87        2972.00           1529       34409.00    150558.60
   71.90        2972.25           1532       25687.00    112276.70
   71.92        2972.50           1536       13525.00     59023.38
   71.95        2972.75           1539        6236.00     27177.88
   71.98        2973.00           1542        3065.00     13340.28
   72.01        2973.25           1546        1864.00      8101.97
   72.04        2973.50           1549        1484.00      6444.85
   72.06        2973.75           1552        1156.00      5014.60
   72.09        2974.00           1556         890.00      3854.79
   72.12        2974.25           1559         595.00      2568.61
   72.15        2974.50           1562         445.00      1914.66
   72.18        2974.75           1566         346.00      1483.06
   72.20        2975.00           1569         292.00      1247.64
   72.23        2975.25           1572         293.00      1252.00
   72.26        2975.50           1576         281.00      1199.69
   72.29        2975.75           1579         259.00      1103.78
   72.31        2976.00           1582         279.00      1190.97
   72.34        2976.25           1586         251.00      1068.91
   72.37        2976.50           1589         250.00      1064.55
   72.40        2976.75           1592         246.00      1047.11
   72.43        2977.00           1596         230.00       977.36
   72.45        2977.25           1599         225.00       955.56
   72.48        2977.50           1602         223.00       946.84
   72.51        2977.75           1606         214.00       907.61
   72.54        2978.00           1609         219.00       929.40
   72.56        2978.25           1612         203.00       859.65
   72.59        2978.50           1616         213.00       903.25
   72.62        2978.75           1619         212.00       898.89
   72.65        2979.00           1622         208.00       881.45
   72.68        2979.25           1626         198.00       837.86
   72.70        2979.50           1629         201.00       850.93
   72.73        2979.75           1632         192.00       811.70
   72.76        2980.00           1636         191.00       807.34
   72.79        2980.25           1639         181.00       763.75
   72.82        2980.50           1642         186.00       785.54
   72.84        2980.75           1646         184.00       776.82
   72.87        2981.00           1649         191.00       807.34
   72.90        2981.25           1652         182.00       768.11
   72.93        2981.50           1656         188.00       794.26
   72.95        2981.75           1659         198.00       837.86
   72.98        2982.00           1662         202.00       855.29
   73.01        2982.25           1666         201.00       850.93
   73.04        2982.50           1669         194.00       820.42
   73.07        2982.75           1672         199.00       842.22
   73.09        2983.00           1676         178.00       750.67
   73.12        2983.25           1679         180.00       759.39
   73.15        2983.50           1682         189.00       798.62
   73.18        2983.75           1686         189.00       798.62
   73.20        2984.00           1689         180.00       759.39
HS scan finished at 01:13:23
end
************************************************************
  HS Scan of (1) Internal mercury lamp
************************************************************
Integration time is 0.2294 seconds per sample
dh020617El Arenosillo 37.1 6.73 3.126073pr1000
************************************************************
Dead Time -------------------------  2.6E-08 
Number of Cycles Used -------------  4 
Starting Wavelength (Angstroms) ---  2950 
Final Wavelength (Angstoms) -------  2984 
Wavelength Increment (Angstroms) --  .25 
Filter Wheel #1 Position ---------- (1) Ground quartz diffuser (ND=2.32)
Filter Wheel #2 Position ---------- (1) Neutral Density 0.494



************************************************************
HS scan start time = 01:57:44
Dark Count =  5.4 


Time (GMT)  Wavelength (Ang)  Step Number  Raw Counts  Counts/Second

  118.10        2950.00           1237         197.00       835.24
  118.16        2950.25           1240         187.00       791.65
  118.19        2950.50           1244         190.00       804.72
  118.22        2950.75           1247         188.00       796.01
  118.24        2951.00           1250         186.00       787.29
  118.27        2951.25           1254         181.00       765.49
  118.30        2951.50           1257         179.00       756.77
  118.33        2951.75           1260         192.00       813.44
  118.36        2952.00           1264         188.00       796.01
  118.38        2952.25           1267         199.00       843.96
  118.41        2952.50           1270         184.00       778.57
  118.44        2952.75           1273         174.00       734.97
  118.47        2953.00           1277         181.00       765.49
  118.50        2953.25           1280         190.00       804.72
  118.52        2953.50           1283         188.00       796.01
  118.55        2953.75           1287         186.00       787.29
  118.58        2954.00           1290         178.00       752.41
  118.61        2954.25           1293         189.00       800.37
  118.64        2954.50           1297         199.00       843.96
  118.66        2954.75           1300         185.00       782.93
  118.69        2955.00           1303         209.00       887.55
  118.72        2955.25           1307         202.00       857.04
  118.75        2955.50           1310         206.00       874.48
  118.77        2955.75           1313         217.00       922.43
  118.80        2956.00           1317         212.00       900.63
  118.83        2956.25           1320         223.00       948.58
  118.86        2956.50           1323         213.00       904.99
  118.89        2956.75           1326         218.00       926.79
  118.91        2957.00           1330         225.00       957.30
  118.94        2957.25           1333         231.00       983.46
  118.97        2957.50           1336         249.00      1061.93
  119.00        2957.75           1340         239.00      1018.34
  119.03        2958.00           1343         261.00      1114.24
  119.05        2958.25           1346         254.00      1083.73
  119.08        2958.50           1350         292.00      1249.39
  119.11        2958.75           1353         302.00      1292.98
  119.14        2959.00           1356         403.00      1733.30
  119.16        2959.25           1360         560.00      2417.76
  119.19        2959.50           1363         867.00      3756.25
  119.22        2959.75           1366        1129.00      4898.62
  119.25        2960.00           1370        1349.00      5857.91
  119.28        2960.25           1373        1683.00      7314.38
  119.30        2960.50           1376        1934.00      8408.99
  119.33        2960.75           1380        2222.00      9665.03
  119.36        2961.00           1383        2546.00     11078.17
  119.39        2961.25           1386        2824.00     12290.76
  119.42        2961.50           1390        4844.00     21103.99
  119.44        2961.75           1393       10210.00     44535.41
  119.47        2962.00           1396       17716.00     77359.45
  119.50        2962.25           1399       25983.00    113576.40
  119.53        2962.50           1403       37569.00    164448.80
  119.56        2962.75           1406       47024.00    206064.50
  119.58        2963.00           1409       56535.00    248017.90
  119.61        2963.25           1413       68805.00    302277.50
  119.64        2963.50           1416       78867.00    346887.90
  119.67        2963.75           1419       89457.00    393951.80
  119.70        2964.00           1423      100708.00    444080.50
  119.72        2964.25           1426      108504.00    478892.70
  119.75        2964.50           1429      116332.00    513911.80
  119.78        2964.75           1433      127570.00    564298.20
  119.81        2965.00           1436      136817.00    605857.70
  119.83        2965.25           1439      145675.00    645754.10
  119.86        2965.50           1443      157124.00    697444.30
  119.89        2965.75           1446      164394.00    730339.90
  119.92        2966.00           1449      171611.00    763052.00
  119.95        2966.25           1453      182197.00    811136.70
  119.97        2966.50           1456      188755.00    840985.90
  120.00        2966.75           1459      192040.00    855955.60
  120.03        2967.00           1463      192648.00    858727.40
  120.06        2967.25           1466      192975.00    860218.50
  120.09        2967.50           1469      192808.00    859457.00
  120.11        2967.75           1473      190170.00    847432.60
  120.14        2968.00           1476      185680.00    826984.00
  120.17        2968.25           1479      178699.00    795234.30
  120.20        2968.50           1483      168160.00    747402.90
  120.23        2968.75           1486      159336.00    707447.30
  120.26        2969.00           1489      150839.00    669051.20
  120.28        2969.25           1493      139598.00    618374.30
  120.31        2969.50           1496      130607.00    577937.60
  120.34        2969.75           1499      121842.00    538599.60
  120.37        2970.00           1502      113190.00    499848.10
  120.40        2970.25           1506      100415.00    442773.40
  120.42        2970.50           1509       90272.00    397578.60
  120.45        2970.75           1512       80403.00    353707.00
  120.48        2971.00           1516       67612.00    296995.10
  120.51        2971.25           1519       59297.00    260218.50
  120.54        2971.50           1522       49751.00    218084.00
  120.56        2971.75           1526       38143.00    166972.70
  120.59        2972.00           1529       30831.00    134846.80
  120.62        2972.25           1532       22275.00     97323.56
  120.65        2972.50           1536       11345.00     49495.21
  120.67        2972.75           1539        4874.00     21234.91
  120.70        2973.00           1542        2299.00     10000.86
  120.73        2973.25           1546        1609.00      6991.68
  120.76        2973.50           1549        1205.00      5230.01
  120.79        2973.75           1552         899.00      3895.77
  120.82        2974.00           1556         626.00      2705.51
  120.84        2974.25           1559         423.00      1820.49
  120.87        2974.50           1562         352.00      1510.96
  120.90        2974.75           1566         304.00      1301.70
  120.93        2975.00           1569         275.00      1175.28
  120.95        2975.25           1572         280.00      1197.07
  120.98        2975.50           1576         267.00      1140.40
  121.01        2975.75           1579         274.00      1170.92
  121.04        2976.00           1582         268.00      1144.76
  121.06        2976.25           1586         252.00      1075.01
  121.09        2976.50           1589         241.00      1027.05
  121.12        2976.75           1592         215.00       913.71
  121.15        2977.00           1596         234.00       996.54
  121.18        2977.25           1599         200.00       848.32
  121.20        2977.50           1602         204.00       865.76
  121.23        2977.75           1606         201.00       852.68
  121.26        2978.00           1609         209.00       887.55
  121.29        2978.25           1612         188.00       796.01
  121.32        2978.50           1616         210.00       891.91
  121.34        2978.75           1619         199.00       843.96
  121.37        2979.00           1622         209.00       887.55
  121.40        2979.25           1626         191.00       809.08
  121.43        2979.50           1629         195.00       826.52
  121.45        2979.75           1632         191.00       809.08
  121.48        2980.00           1636         194.00       822.16
  121.51        2980.25           1639         188.00       796.01
  121.54        2980.50           1642         194.00       822.16
  121.57        2980.75           1646         188.00       796.01
  121.59        2981.00           1649         186.00       787.29
  121.62        2981.25           1652         187.00       791.65
  121.65        2981.50           1656         180.00       761.13
  121.68        2981.75           1659         163.00       687.02
  121.71        2982.00           1662         179.00       756.77
  121.73        2982.25           1666         172.00       726.26
  121.76        2982.50           1669         179.00       756.77
  121.79        2982.75           1672         184.00       778.57
  121.82        2983.00           1676         179.00       756.77
  121.85        2983.25           1679         174.00       734.97
  121.87        2983.50           1682         172.00       726.26
  121.90        2983.75           1686         177.00       748.05
  121.93        2984.00           1689         174.00       734.97
HS scan finished at 02:02:06
end
************************************************************
  HS Scan of (1) Internal mercury lamp
************************************************************
Integration time is 0.2294 seconds per sample
dh020617El Arenosillo 37.1 6.73 3.126073pr1000
************************************************************
Dead Time -------------------------  2.6E-08 
Number of Cycles Used -------------  4 
Starting Wavelength (Angstroms) ---  2950 
Final Wavelength (Angstoms) -------  2984 
Wavelength Increment (Angstroms) --  .25 
Filter Wheel #1 Position ---------- (1) Ground quartz diffuser (ND=2.32)
Filter Wheel #2 Position ---------- (1) Neutral Density 0.494



************************************************************
HS scan start time = 21:36:46
Dark Count =  21.4 


Time (GMT)  Wavelength (Ang)  Step Number  Raw Counts  Counts/Second

 1297.12        2950.00           1237         174.00       665.23
 1297.19        2950.25           1240         179.00       687.02
 1297.21        2950.50           1244         185.00       713.18
 1297.24        2950.75           1247         185.00       713.18
 1297.27        2951.00           1250         173.00       660.87
 1297.30        2951.25           1254         168.00       639.07
 1297.33        2951.50           1257         168.00       639.07
 1297.35        2951.75           1260         190.00       734.97
 1297.38        2952.00           1264         184.00       708.82
 1297.41        2952.25           1267         168.00       639.07
 1297.44        2952.50           1270         180.00       691.38
 1297.46        2952.75           1273         182.00       700.10
 1297.49        2953.00           1277         180.00       691.38
 1297.52        2953.25           1280         191.00       739.33
 1297.55        2953.50           1283         172.00       656.51
 1297.58        2953.75           1287         180.00       691.38
 1297.60        2954.00           1290         176.00       673.94
 1297.63        2954.25           1293         182.00       700.10
 1297.66        2954.50           1297         183.00       704.46
 1297.69        2954.75           1300         186.00       717.54
 1297.71        2955.00           1303         181.00       695.74
 1297.74        2955.25           1307         178.00       682.66
 1297.77        2955.50           1310         188.00       726.26
 1297.80        2955.75           1313         192.00       743.69
 1297.83        2956.00           1317         195.00       756.77
 1297.85        2956.25           1320         199.00       774.21
 1297.88        2956.50           1323         196.00       761.13
 1297.91        2956.75           1326         203.00       791.65
 1297.94        2957.00           1330         213.00       835.24
 1297.96        2957.25           1333         212.00       830.88
 1297.99        2957.50           1336         222.00       874.48
 1298.02        2957.75           1340         229.00       904.99
 1298.05        2958.00           1343         221.00       870.12
 1298.08        2958.25           1346         228.00       900.63
 1298.10        2958.50           1350         249.00       992.18
 1298.13        2958.75           1353         255.00      1018.34
 1298.16        2959.00           1356         270.00      1083.73
 1298.19        2959.25           1360         303.00      1227.59
 1298.22        2959.50           1363         466.00      1938.20
 1298.24        2959.75           1366         642.00      2705.51
 1298.27        2960.00           1370         806.00      3420.53
 1298.30        2960.25           1373        1002.00      4275.10
 1298.33        2960.50           1376        1218.00      5216.92
 1298.36        2960.75           1380        1420.00      6097.74
 1298.39        2961.00           1383        1692.00      7283.86
 1298.42        2961.25           1386        1936.00      8347.93
 1298.44        2961.50           1390        2816.00     12186.08
 1298.47        2961.75           1393        5916.00     25712.91
 1298.50        2962.00           1396       11192.00     48756.63
 1298.53        2962.25           1399       17957.00     78344.25
 1298.56        2962.50           1403       26597.00    116198.80
 1298.58        2962.75           1406       35197.00    153952.40
 1298.61        2963.00           1409       42013.00    183927.20
 1298.64        2963.25           1413       50378.00    220778.10
 1298.67        2963.50           1416       57879.00    253883.10
 1298.70        2963.75           1419       65024.00    285470.20
 1298.72        2964.00           1423       75509.00    331917.50
 1298.75        2964.25           1426       83178.00    365961.70
 1298.78        2964.50           1429       90542.00    398709.10
 1298.81        2964.75           1433       99990.00    440806.20
 1298.84        2965.00           1436      107191.00    472953.70
 1298.86        2965.25           1439      113697.00    502045.20
 1298.89        2965.50           1443      122678.00    542276.50
 1298.92        2965.75           1446      129462.00    572722.30
 1298.95        2966.00           1449      136458.00    604170.50
 1298.98        2966.25           1453      145829.00    646376.30
 1299.00        2966.50           1456      151409.00    671552.30
 1299.03        2966.75           1459      154914.00    687383.30
 1299.06        2967.00           1463      155763.00    691219.80
 1299.09        2967.25           1466      155983.00    692214.20
 1299.12        2967.50           1469      156119.00    692828.90
 1299.14        2967.75           1473      155243.00    688870.00
 1299.17        2968.00           1476      151958.00    674031.00
 1299.20        2968.25           1479      146178.00    647949.90
 1299.23        2968.50           1483      138448.00    613125.50
 1299.26        2968.75           1486      132770.00    587586.00
 1299.28        2969.00           1489      125855.00    556528.40
 1299.31        2969.25           1493      116605.00    515062.60
 1299.34        2969.50           1496      109684.00    484095.90
 1299.37        2969.75           1499      102668.00    452755.30
 1299.40        2970.00           1502       95575.00    421122.90
 1299.43        2970.25           1506       85981.00    378419.90
 1299.45        2970.50           1509       78617.00    345707.20
 1299.48        2970.75           1512       71503.00    314158.10
 1299.51        2971.00           1516       61637.00    270490.20
 1299.54        2971.25           1519       53414.00    234170.30
 1299.56        2971.50           1522       45768.00    200460.60
 1299.59        2971.75           1526       35694.00    156136.50
 1299.62        2972.00           1529       28920.00    126389.40
 1299.65        2972.25           1532       21194.00     92517.84
 1299.68        2972.50           1536       11804.00     51431.42
 1299.70        2972.75           1539        5941.00     25822.04
 1299.73        2973.00           1542        2716.00     11749.89
 1299.76        2973.25           1546        1329.00      5700.93
 1299.79        2973.50           1549         995.00      4244.58
 1299.82        2973.75           1552         735.00      3110.98
 1299.84        2974.00           1556         581.00      2439.56
 1299.87        2974.25           1559         402.00      1659.18
 1299.90        2974.50           1562         311.00      1262.47
 1299.93        2974.75           1566         269.00      1079.37
 1299.95        2975.00           1569         266.00      1066.29
 1299.98        2975.25           1572         253.00      1009.62
 1300.01        2975.50           1576         259.00      1035.77
 1300.04        2975.75           1579         237.00       939.87
 1300.07        2976.00           1582         229.00       904.99
 1300.09        2976.25           1586         235.00       931.15
 1300.12        2976.50           1589         244.00       970.38
 1300.15        2976.75           1592         212.00       830.88
 1300.18        2977.00           1596         206.00       804.72
 1300.21        2977.25           1599         213.00       835.24
 1300.23        2977.50           1602         208.00       813.44
 1300.26        2977.75           1606         201.00       782.93
 1300.29        2978.00           1609         199.00       774.21
 1300.32        2978.25           1612         196.00       761.13
 1300.35        2978.50           1616         201.00       782.93
 1300.37        2978.75           1619         184.00       708.82
 1300.40        2979.00           1622         192.00       743.69
 1300.43        2979.25           1626         196.00       761.13
 1300.46        2979.50           1629         180.00       691.38
 1300.48        2979.75           1632         181.00       695.74
 1300.51        2980.00           1636         197.00       765.49
 1300.54        2980.25           1639         175.00       669.58
 1300.57        2980.50           1642         169.00       643.43
 1300.60        2980.75           1646         180.00       691.38
 1300.62        2981.00           1649         175.00       669.58
 1300.65        2981.25           1652         171.00       652.15
 1300.68        2981.50           1656         170.00       647.79
 1300.71        2981.75           1659         174.00       665.23
 1300.74        2982.00           1662         176.00       673.94
 1300.76        2982.25           1666         178.00       682.66
 1300.79        2982.50           1669         169.00       643.43
 1300.82        2982.75           1672         167.00       634.71
 1300.85        2983.00           1676         165.00       625.99
 1300.88        2983.25           1679         173.00       660.87
 1300.90        2983.50           1682         187.00       721.90
 1300.93        2983.75           1686         175.00       669.58
 1300.96        2984.00           1689         179.00       687.02
HS scan finished at 21:41:08
end
