************************************************************
  HS Scan of (1) Internal mercury lamp
************************************************************
Integration time is 0.2294 seconds per sample
dh300517El Arenosillo 37.1 6.73 3.126073pr1000
************************************************************
Dead Time -------------------------  2.6E-08 
Number of Cycles Used -------------  4 
Starting Wavelength (Angstroms) ---  2950 
Final Wavelength (Angstoms) -------  2984 
Wavelength Increment (Angstroms) --  .25 
Filter Wheel #1 Position ---------- (1) Ground quartz diffuser (ND=2.32)
Filter Wheel #2 Position ---------- (1) Neutral Density 0.494



************************************************************
HS scan start time = 07:59:32
Dark Count =  9.399999 


Time (GMT)  Wavelength (Ang)  Step Number  Raw Counts  Counts/Second

  479.89        2950.00           1237          83.00       320.84
  479.95        2950.25           1240          89.00       347.00
  479.98        2950.50           1244          91.00       355.71
  480.01        2950.75           1247          80.00       307.76
  480.04        2951.00           1250          79.00       303.40
  480.07        2951.25           1254          85.00       329.56
  480.09        2951.50           1257          88.00       342.64
  480.12        2951.75           1260          89.00       347.00
  480.15        2952.00           1264          82.00       316.48
  480.18        2952.25           1267          85.00       329.56
  480.21        2952.50           1270          89.00       347.00
  480.23        2952.75           1273          89.00       347.00
  480.26        2953.00           1277          90.00       351.35
  480.29        2953.25           1280          85.00       329.56
  480.32        2953.50           1283          95.00       373.15
  480.35        2953.75           1287          86.00       333.92
  480.37        2954.00           1290          93.00       364.43
  480.40        2954.25           1293          83.00       320.84
  480.43        2954.50           1297         100.00       394.95
  480.46        2954.75           1300          93.00       364.43
  480.48        2955.00           1303         101.00       399.31
  480.51        2955.25           1307          83.00       320.84
  480.54        2955.50           1310          94.00       368.79
  480.57        2955.75           1313          88.00       342.64
  480.60        2956.00           1317          96.00       377.51
  480.62        2956.25           1320          92.00       360.07
  480.65        2956.50           1323          96.00       377.51
  480.68        2956.75           1326          99.00       390.59
  480.71        2957.00           1330         112.00       447.26
  480.74        2957.25           1333         105.00       416.74
  480.76        2957.50           1336         117.00       469.06
  480.79        2957.75           1340         117.00       469.06
  480.82        2958.00           1343         117.00       469.06
  480.85        2958.25           1346         137.00       556.24
  480.88        2958.50           1350         132.00       534.45
  480.90        2958.75           1353         149.00       608.55
  480.93        2959.00           1356         161.00       660.87
  480.96        2959.25           1360         213.00       887.55
  480.99        2959.50           1363         327.00      1384.53
  481.01        2959.75           1366         456.00      1946.92
  481.04        2960.00           1370         584.00      2504.96
  481.07        2960.25           1373         776.00      3342.05
  481.10        2960.50           1376         902.00      3891.41
  481.13        2960.75           1380        1052.00      4545.44
  481.16        2961.00           1383        1286.00      5565.76
  481.18        2961.25           1386        1571.00      6808.53
  481.21        2961.50           1390        4105.00     17861.82
  481.24        2961.75           1393        7441.00     32423.14
  481.27        2962.00           1396       11593.00     50561.63
  481.30        2962.25           1399       16745.00     73092.56
  481.32        2962.50           1403       23275.00    101687.90
  481.35        2962.75           1406       28315.00    123787.50
  481.38        2963.00           1409       33593.00    146958.00
  481.41        2963.25           1413       40819.00    178725.70
  481.44        2963.50           1416       46661.00    204447.40
  481.46        2963.75           1419       51671.00    226533.50
  481.49        2964.00           1423       59235.00    259926.80
  481.52        2964.25           1426       64695.00    284067.70
  481.55        2964.50           1429       70343.00    309071.80
  481.58        2964.75           1433       77201.00    339476.60
  481.61        2965.00           1436       82541.00    363185.00
  481.63        2965.25           1439       87710.00    386162.10
  481.66        2965.50           1443       93887.00    413656.10
  481.69        2965.75           1446       98642.00    434847.80
  481.72        2966.00           1449      103453.00    456312.90
  481.75        2966.25           1453      109643.00    483966.30
  481.77        2966.50           1456      113511.00    501266.60
  481.80        2966.75           1459      115242.00    509013.80
  481.83        2967.00           1463      115359.00    509537.60
  481.86        2967.25           1466      115808.00    511547.70
  481.89        2967.50           1469      115589.00    510567.30
  481.91        2967.75           1473      114103.00    503915.80
  481.94        2968.00           1476      110895.00    489564.30
  481.97        2968.25           1479      106204.00    468597.90
  482.00        2968.50           1483       99687.00    439508.20
  482.03        2968.75           1486       93755.00    413068.20
  482.05        2969.00           1489       88611.00    390170.00
  482.08        2969.25           1493       81742.00    359635.70
  482.11        2969.50           1496       77221.00    339565.40
  482.14        2969.75           1499       72355.00    317987.00
  482.17        2970.00           1502       67415.00    296105.30
  482.20        2970.25           1506       59467.00    260952.00
  482.22        2970.50           1509       53510.00    234646.90
  482.25        2970.75           1512       47564.00    208426.40
  482.28        2971.00           1516       40096.00    175544.80
  482.31        2971.25           1519       34385.00    150437.30
  482.34        2971.50           1522       28129.00    122971.50
  482.36        2971.75           1526       20205.00     88238.82
  482.39        2972.00           1529       14123.00     61622.63
  482.42        2972.25           1532        8958.00     39048.35
  482.45        2972.50           1536        3716.00     16164.60
  482.48        2972.75           1539        1880.00      8156.05
  482.51        2973.00           1542        1264.00      5469.83
  482.53        2973.25           1546        1038.00      4484.39
  482.56        2973.50           1549         824.00      3551.33
  482.59        2973.75           1552         674.00      2897.34
  482.62        2974.00           1556         519.00      2221.58
  482.65        2974.25           1559         344.00      1458.64
  482.67        2974.50           1562         239.00      1000.90
  482.70        2974.75           1566         175.00       721.90
  482.73        2975.00           1569         138.00       560.60
  482.76        2975.25           1572         143.00       582.40
  482.79        2975.50           1576         126.00       508.29
  482.81        2975.75           1579         125.00       503.93
  482.84        2976.00           1582         123.00       495.21
  482.87        2976.25           1586         118.00       473.41
  482.90        2976.50           1589         110.00       438.54
  482.93        2976.75           1592         106.00       421.10
  482.95        2977.00           1596         108.00       429.82
  482.98        2977.25           1599         101.00       399.31
  483.01        2977.50           1602          93.00       364.43
  483.04        2977.75           1606          95.00       373.15
  483.06        2978.00           1609          90.00       351.35
  483.09        2978.25           1612          90.00       351.35
  483.12        2978.50           1616          87.00       338.28
  483.15        2978.75           1619          88.00       342.64
  483.18        2979.00           1622          97.00       381.87
  483.20        2979.25           1626          85.00       329.56
  483.23        2979.50           1629          90.00       351.35
  483.26        2979.75           1632          83.00       320.84
  483.29        2980.00           1636          98.00       386.23
  483.32        2980.25           1639          84.00       325.20
  483.34        2980.50           1642          83.00       320.84
  483.37        2980.75           1646          77.00       294.68
  483.40        2981.00           1649          79.00       303.40
  483.43        2981.25           1652          82.00       316.48
  483.46        2981.50           1656          75.00       285.97
  483.48        2981.75           1659          85.00       329.56
  483.51        2982.00           1662          77.00       294.68
  483.54        2982.25           1666          86.00       333.92
  483.57        2982.50           1669          77.00       294.68
  483.60        2982.75           1672          89.00       347.00
  483.62        2983.00           1676          83.00       320.84
  483.65        2983.25           1679          71.00       268.53
  483.68        2983.50           1682          72.00       272.89
  483.71        2983.75           1686          79.00       303.40
  483.74        2984.00           1689          84.00       325.20
HS scan finished at 08:03:55
end
