************************************************************
  HS Scan of (1) Internal mercury lamp
************************************************************
Integration time is 0.2294 seconds per sample
dh180619El Arenosillo 37.1 6.73 2.804185pr1000
************************************************************
Dead Time -------------------------  3.1E-08 
Number of Cycles Used -------------  4 
Starting Wavelength (Angstroms) ---  2950 
Final Wavelength (Angstoms) -------  2984 
Wavelength Increment (Angstroms) --  .25 
Filter Wheel #1 Position ---------- (1) Ground quartz diffuser (ND=2.32)
Filter Wheel #2 Position ---------- (1) Neutral Density 0.494



************************************************************
HS scan start time = 02:10:03
Dark Count =  2.8 


Time (GMT)  Wavelength (Ang)  Step Number  Raw Counts  Counts/Second

  130.41        2950.00           1237         157.00       672.20
  130.48        2950.25           1240         150.00       641.69
  130.50        2950.50           1244         144.00       615.53
  130.53        2950.75           1247         138.00       589.37
  130.56        2951.00           1250         145.00       619.89
  130.58        2951.25           1254         135.00       576.30
  130.61        2951.50           1257         143.00       611.17
  130.64        2951.75           1260         148.00       632.97
  130.67        2952.00           1264         143.00       611.17
  130.70        2952.25           1267         154.00       659.12
  130.72        2952.50           1270         153.00       654.76
  130.75        2952.75           1273         141.00       602.45
  130.78        2953.00           1277         151.00       646.05
  130.81        2953.25           1280         143.00       611.17
  130.84        2953.50           1283         140.00       598.09
  130.86        2953.75           1287         148.00       632.97
  130.89        2954.00           1290         154.00       659.12
  130.92        2954.25           1293         149.00       637.33
  130.95        2954.50           1297         157.00       672.20
  130.98        2954.75           1300         155.00       663.48
  131.00        2955.00           1303         150.00       641.69
  131.03        2955.25           1307         146.00       624.25
  131.06        2955.50           1310         154.00       659.12
  131.09        2955.75           1313         157.00       672.20
  131.12        2956.00           1317         148.00       632.97
  131.14        2956.25           1320         160.00       685.28
  131.17        2956.50           1323         160.00       685.28
  131.20        2956.75           1326         151.00       646.05
  131.23        2957.00           1330         172.00       737.59
  131.25        2957.25           1333         160.00       685.28
  131.28        2957.50           1336         169.00       724.51
  131.31        2957.75           1340         176.00       755.03
  131.34        2958.00           1343         176.00       755.03
  131.37        2958.25           1346         184.00       789.91
  131.40        2958.50           1350         195.00       837.86
  131.42        2958.75           1353         197.00       846.58
  131.45        2959.00           1356         233.00      1003.52
  131.48        2959.25           1360         314.00      1356.64
  131.51        2959.50           1363         446.00      1932.11
  131.53        2959.75           1366         552.00      2394.25
  131.56        2960.00           1370         722.00      3135.44
  131.59        2960.25           1373         885.00      3846.14
  131.62        2960.50           1376        1030.00      4478.39
  131.65        2960.75           1380        1160.00      5045.25
  131.67        2961.00           1383        1366.00      5943.55
  131.70        2961.25           1386        1483.00      6453.78
  131.73        2961.50           1390        1613.00      7020.71
  131.75        2961.75           1393        2330.00     10147.92
  131.78        2962.00           1396        4870.00     21231.06
  131.81        2962.25           1399        9027.00     39386.34
  131.84        2962.50           1403       15702.00     68581.57
  131.87        2962.75           1406       20883.00     91278.84
  131.89        2963.00           1409       26278.00    114947.70
  131.92        2963.25           1413       33830.00    148138.20
  131.95        2963.50           1416       38945.00    170657.20
  131.98        2963.75           1419       43968.00    192801.90
  132.01        2964.00           1423       50200.00    220319.20
  132.04        2964.25           1426       55107.00    242019.10
  132.07        2964.50           1429       59855.00    263043.80
  132.10        2964.75           1433       65783.00    289332.50
  132.13        2965.00           1436       70793.00    311583.60
  132.16        2965.25           1439       76284.00    336006.60
  132.18        2965.50           1443       82363.00    363088.40
  132.21        2965.75           1446       86281.00    380567.20
  132.24        2966.00           1449       90492.00    399374.40
  132.27        2966.25           1453       95987.00    423949.40
  132.30        2966.50           1456      100816.00    445577.20
  132.32        2966.75           1459      104833.00    463590.40
  132.35        2967.00           1463      107213.00    474272.50
  132.38        2967.25           1466      107549.00    475781.10
  132.41        2967.50           1469      107470.00    475426.40
  132.44        2967.75           1473      107561.00    475835.00
  132.47        2968.00           1476      106627.00    471641.70
  132.49        2968.25           1479      104642.00    462733.50
  132.52        2968.50           1483       99166.00    438184.00
  132.55        2968.75           1486       94661.00    418015.80
  132.58        2969.00           1489       89149.00    393373.90
  132.61        2969.25           1493       82874.00    365367.00
  132.63        2969.50           1496       77658.00    342123.80
  132.66        2969.75           1499       72707.00    320092.50
  132.69        2970.00           1502       68215.00    300130.00
  132.72        2970.25           1506       62579.00    275118.50
  132.75        2970.50           1509       57783.00    253865.40
  132.77        2970.75           1512       52950.00    232476.70
  132.80        2971.00           1516       46602.00    204426.50
  132.83        2971.25           1519       42131.00    184699.70
  132.85        2971.50           1522       37580.00    164644.70
  132.88        2971.75           1526       31137.00    136294.80
  132.91        2972.00           1529       25994.00    113700.90
  132.94        2972.25           1532       20885.00     91287.62
  132.97        2972.50           1536       14608.00     63793.00
  133.00        2972.75           1539        9342.00     40762.90
  133.02        2973.00           1542        4699.00     20484.67
  133.05        2973.25           1546        1506.00      6554.08
  133.08        2973.50           1549         726.00      3152.88
  133.11        2973.75           1552         489.00      2119.58
  133.14        2974.00           1556         359.00      1552.82
  133.16        2974.25           1559         255.00      1099.43
  133.19        2974.50           1562         236.00      1016.60
  133.22        2974.75           1566         207.00       890.17
  133.25        2975.00           1569         196.00       842.22
  133.27        2975.25           1572         191.00       820.42
  133.30        2975.50           1576         188.00       807.34
  133.33        2975.75           1579         197.00       846.58
  133.36        2976.00           1582         173.00       741.95
  133.39        2976.25           1586         173.00       741.95
  133.41        2976.50           1589         166.00       711.44
  133.44        2976.75           1592         161.00       689.64
  133.47        2977.00           1596         158.00       676.56
  133.50        2977.25           1599         153.00       654.76
  133.53        2977.50           1602         163.00       698.36
  133.55        2977.75           1606         140.00       598.09
  133.58        2978.00           1609         142.00       606.81
  133.61        2978.25           1612         145.00       619.89
  133.64        2978.50           1616         157.00       672.20
  133.67        2978.75           1619         139.00       593.73
  133.69        2979.00           1622         138.00       589.37
  133.72        2979.25           1626         140.00       598.09
  133.75        2979.50           1629         128.00       545.78
  133.78        2979.75           1632         144.00       615.53
  133.81        2980.00           1636         137.00       585.01
  133.83        2980.25           1639         128.00       545.78
  133.86        2980.50           1642         133.00       567.58
  133.89        2980.75           1646         135.00       576.30
  133.91        2981.00           1649         137.00       585.01
  133.94        2981.25           1652         127.00       541.42
  133.97        2981.50           1656         129.00       550.14
  134.00        2981.75           1659         129.00       550.14
  134.03        2982.00           1662         137.00       585.01
  134.05        2982.25           1666         125.00       532.70
  134.08        2982.50           1669         128.00       545.78
  134.11        2982.75           1672         138.00       589.37
  134.14        2983.00           1676         123.00       523.98
  134.17        2983.25           1679         133.00       567.58
  134.19        2983.50           1682         126.00       537.06
  134.22        2983.75           1686         132.00       563.22
  134.25        2984.00           1689         128.00       545.78
HS scan finished at 02:14:26
end
