************************************************************
  HS Scan of (1) Internal mercury lamp
************************************************************
Integration time is 0.2294 seconds per sample
dh090619Madrid 40.45 3.717 2.857833pr940
************************************************************
Dead Time -------------------------  3.1E-08 
Number of Cycles Used -------------  4 
Starting Wavelength (Angstroms) ---  2950 
Final Wavelength (Angstoms) -------  2984 
Wavelength Increment (Angstroms) --  .25 
Filter Wheel #1 Position ---------- (1) Ground quartz diffuser (ND=2.32)
Filter Wheel #2 Position ---------- (1) Neutral Density 0.494



************************************************************
HS scan start time = 01:00:08
Dark Count =  2.3 


Time (GMT)  Wavelength (Ang)  Step Number  Raw Counts  Counts/Second

   60.49        2950.00           1237         152.00       652.59
   60.56        2950.25           1240         135.00       578.48
   60.59        2950.50           1244         145.00       622.07
   60.61        2950.75           1247         146.00       626.43
   60.64        2951.00           1250         154.00       661.30
   60.67        2951.25           1254         150.00       643.87
   60.70        2951.50           1257         138.00       591.55
   60.73        2951.75           1260         137.00       587.19
   60.75        2952.00           1264         151.00       648.23
   60.78        2952.25           1267         138.00       591.55
   60.81        2952.50           1270         143.00       613.35
   60.84        2952.75           1273         151.00       648.23
   60.87        2953.00           1277         127.00       543.60
   60.89        2953.25           1280         141.00       604.63
   60.92        2953.50           1283         149.00       639.51
   60.95        2953.75           1287         145.00       622.07
   60.98        2954.00           1290         140.00       600.27
   61.01        2954.25           1293         139.00       595.91
   61.03        2954.50           1297         144.00       617.71
   61.06        2954.75           1300         154.00       661.30
   61.09        2955.00           1303         140.00       600.27
   61.12        2955.25           1307         150.00       643.87
   61.15        2955.50           1310         144.00       617.71
   61.17        2955.75           1313         154.00       661.30
   61.20        2956.00           1317         169.00       726.69
   61.23        2956.25           1320         156.00       670.02
   61.26        2956.50           1323         144.00       617.71
   61.29        2956.75           1326         164.00       704.90
   61.31        2957.00           1330         166.00       713.62
   61.35        2957.25           1333         168.00       722.34
   61.38        2957.50           1336         158.00       678.74
   61.41        2957.75           1340         173.00       744.13
   61.44        2958.00           1343         170.00       731.05
   61.47        2958.25           1346         186.00       800.80
   61.49        2958.50           1350         175.00       752.85
   61.52        2958.75           1353         174.00       748.49
   61.55        2959.00           1356         202.00       870.56
   61.58        2959.25           1360         253.00      1092.89
   61.61        2959.50           1363         375.00      1624.76
   61.63        2959.75           1366         499.00      2165.36
   61.66        2960.00           1370         638.00      2771.38
   61.69        2960.25           1373         822.00      3573.63
   61.72        2960.50           1376         940.00      4088.14
   61.75        2960.75           1380        1147.00      4990.75
   61.77        2961.00           1383        1313.00      5714.61
   61.80        2961.25           1386        1427.00      6211.75
   61.83        2961.50           1390        1637.00      7127.56
   61.86        2961.75           1393        2333.00     10163.18
   61.89        2962.00           1396        4919.00     21447.12
   61.91        2962.25           1399        9407.00     41049.15
   61.94        2962.50           1403       16740.00     73128.53
   61.97        2962.75           1406       21909.00     95779.60
   62.00        2963.00           1409       27110.00    118603.10
   62.03        2963.25           1413       33364.00    146090.40
   62.05        2963.50           1416       38321.00    167910.50
   62.08        2963.75           1419       43445.00    190497.00
   62.11        2964.00           1423       50056.00    219685.00
   62.14        2964.25           1426       55346.00    243079.00
   62.17        2964.50           1429       60865.00    267522.00
   62.19        2964.75           1433       67287.00    296011.20
   62.22        2965.00           1436       71520.00    314817.30
   62.25        2965.25           1439       76237.00    335799.60
   62.28        2965.50           1443       82986.00    365868.60
   62.31        2965.75           1446       87666.00    386752.70
   62.33        2966.00           1449       92861.00    409966.80
   62.36        2966.25           1453       99368.00    439091.20
   62.39        2966.50           1456      103645.00    458263.20
   62.42        2966.75           1459      107668.00    476317.70
   62.45        2967.00           1463      111453.00    493322.70
   62.48        2967.25           1466      112029.00    495912.10
   62.52        2967.50           1469      112183.00    496604.50
   62.55        2967.75           1473      112019.00    495867.20
   62.58        2968.00           1476      111528.00    493659.80
   62.61        2968.25           1479      109260.00    483467.90
   62.64        2968.50           1483      104103.00    460317.60
   62.66        2968.75           1486       99254.00    438580.40
   62.69        2969.00           1489       94339.00    416577.40
   62.72        2969.25           1493       88174.00    389021.20
   62.75        2969.50           1496       82878.00    365387.00
   62.78        2969.75           1499       78189.00    344490.60
   62.80        2970.00           1502       72941.00    321135.40
   62.83        2970.25           1506       66825.00    293960.00
   62.86        2970.50           1509       61918.00    272189.90
   62.89        2970.75           1512       56912.00    250010.80
   62.92        2971.00           1516       49818.00    218633.30
   62.94        2971.25           1519       44477.00    195049.90
   62.97        2971.50           1522       39251.00    172007.60
   63.00        2971.75           1526       32587.00    142672.80
   63.03        2972.00           1529       27365.00    119722.90
   63.06        2972.25           1532       22069.00     96481.24
   63.08        2972.50           1536       15575.00     68027.80
   63.11        2972.75           1539       11123.00     48550.35
   63.14        2973.00           1542        6097.00     26589.91
   63.17        2973.25           1546        1800.00      7838.44
   63.20        2973.50           1549         752.00      3268.42
   63.22        2973.75           1552         482.00      2091.24
   63.25        2974.00           1556         340.00      1472.17
   63.28        2974.25           1559         249.00      1075.45
   63.31        2974.50           1562         217.00       935.95
   63.34        2974.75           1566         212.00       914.15
   63.36        2975.00           1569         197.00       848.76
   63.39        2975.25           1572         205.00       883.63
   63.42        2975.50           1576         188.00       809.52
   63.45        2975.75           1579         184.00       792.09
   63.47        2976.00           1582         168.00       722.34
   63.50        2976.25           1586         186.00       800.80
   63.53        2976.50           1589         178.00       765.93
   63.56        2976.75           1592         147.00       630.79
   63.59        2977.00           1596         175.00       752.85
   63.61        2977.25           1599         151.00       648.23
   63.64        2977.50           1602         153.00       656.94
   63.67        2977.75           1606         168.00       722.34
   63.70        2978.00           1609         161.00       691.82
   63.73        2978.25           1612         158.00       678.74
   63.75        2978.50           1616         148.00       635.15
   63.78        2978.75           1619         135.00       578.48
   63.81        2979.00           1622         135.00       578.48
   63.84        2979.25           1626         152.00       652.59
   63.87        2979.50           1629         135.00       578.48
   63.89        2979.75           1632         136.00       582.84
   63.92        2980.00           1636         120.00       513.09
   63.95        2980.25           1639         141.00       604.63
   63.98        2980.50           1642         130.00       556.68
   64.00        2980.75           1646         145.00       622.07
   64.03        2981.00           1649         139.00       595.91
   64.06        2981.25           1652         137.00       587.19
   64.09        2981.50           1656         130.00       556.68
   64.12        2981.75           1659         136.00       582.84
   64.14        2982.00           1662         136.00       582.84
   64.17        2982.25           1666         138.00       591.55
   64.21        2982.50           1669         134.00       574.12
   64.24        2982.75           1672         139.00       595.91
   64.27        2983.00           1676         128.00       547.96
   64.29        2983.25           1679         130.00       556.68
   64.32        2983.50           1682         125.00       534.88
   64.35        2983.75           1686         121.00       517.45
   64.38        2984.00           1689         130.00       556.68
HS scan finished at 01:04:33
end
