************************************************************
  HS Scan of (1) Internal mercury lamp
************************************************************
Integration time is 0.2294 seconds per sample
dh170619El Arenosillo 37.1 6.73 2.804185pr1000
************************************************************
Dead Time -------------------------  3.1E-08 
Number of Cycles Used -------------  4 
Starting Wavelength (Angstroms) ---  2950 
Final Wavelength (Angstoms) -------  2984 
Wavelength Increment (Angstroms) --  .25 
Filter Wheel #1 Position ---------- (1) Ground quartz diffuser (ND=2.32)
Filter Wheel #2 Position ---------- (1) Neutral Density 0.494



************************************************************
HS scan start time = 21:57:54
Dark Count =  2.3 


Time (GMT)  Wavelength (Ang)  Step Number  Raw Counts  Counts/Second

 1318.26        2950.00           1237         135.00       578.48
 1318.32        2950.25           1240         146.00       626.43
 1318.35        2950.50           1244         141.00       604.63
 1318.38        2950.75           1247         143.00       613.35
 1318.40        2951.00           1250         157.00       674.38
 1318.43        2951.25           1254         149.00       639.51
 1318.46        2951.50           1257         144.00       617.71
 1318.49        2951.75           1260         150.00       643.87
 1318.52        2952.00           1264         158.00       678.74
 1318.54        2952.25           1267         147.00       630.79
 1318.57        2952.50           1270         142.00       608.99
 1318.60        2952.75           1273         150.00       643.87
 1318.63        2953.00           1277         162.00       696.18
 1318.66        2953.25           1280         138.00       591.55
 1318.68        2953.50           1283         135.00       578.48
 1318.71        2953.75           1287         146.00       626.43
 1318.74        2954.00           1290         139.00       595.91
 1318.77        2954.25           1293         144.00       617.71
 1318.79        2954.50           1297         149.00       639.51
 1318.82        2954.75           1300         157.00       674.38
 1318.85        2955.00           1303         141.00       604.63
 1318.88        2955.25           1307         141.00       604.63
 1318.91        2955.50           1310         148.00       635.15
 1318.93        2955.75           1313         156.00       670.02
 1318.96        2956.00           1317         170.00       731.05
 1318.99        2956.25           1320         162.00       696.18
 1319.02        2956.50           1323         157.00       674.38
 1319.05        2956.75           1326         153.00       656.94
 1319.07        2957.00           1330         161.00       691.82
 1319.10        2957.25           1333         170.00       731.05
 1319.13        2957.50           1336         157.00       674.38
 1319.16        2957.75           1340         171.00       735.41
 1319.19        2958.00           1343         174.00       748.49
 1319.21        2958.25           1346         170.00       731.05
 1319.24        2958.50           1350         201.00       866.20
 1319.27        2958.75           1353         187.00       805.16
 1319.30        2959.00           1356         226.00       975.18
 1319.33        2959.25           1360         281.00      1214.95
 1319.35        2959.50           1363         424.00      1838.38
 1319.38        2959.75           1366         554.00      2405.15
 1319.41        2960.00           1370         695.00      3019.90
 1319.44        2960.25           1373         871.00      3787.28
 1319.46        2960.50           1376         993.00      4319.24
 1319.49        2960.75           1380        1140.00      4960.22
 1319.52        2961.00           1383        1324.00      5762.58
 1319.55        2961.25           1386        1474.00      6416.71
 1319.58        2961.50           1390        1643.00      7153.72
 1319.61        2961.75           1393        2008.00      8745.61
 1319.63        2962.00           1396        3934.00     17148.17
 1319.66        2962.25           1399        7688.00     33538.34
 1319.69        2962.50           1403       13931.00     60832.57
 1319.72        2962.75           1406       19210.00     83948.34
 1319.75        2963.00           1409       24571.00    107457.20
 1319.77        2963.25           1413       32234.00    141120.40
 1319.80        2963.50           1416       37100.00    162533.10
 1319.83        2963.75           1419       41906.00    183709.80
 1319.86        2964.00           1423       48685.00    213627.60
 1319.89        2964.25           1426       53384.00    234398.50
 1319.91        2964.50           1429       58245.00    255913.70
 1319.94        2964.75           1433       64530.00    283774.50
 1319.97        2965.00           1436       69279.00    304858.40
 1320.00        2965.25           1439       74629.00    328643.80
 1320.03        2965.50           1443       80462.00    354616.80
 1320.05        2965.75           1446       84307.00    371760.70
 1320.08        2966.00           1449       88916.00    392335.30
 1320.11        2966.25           1453       94954.00    419329.00
 1320.14        2966.50           1456       99177.00    438235.50
 1320.17        2966.75           1459      103590.00    458016.50
 1320.19        2967.00           1463      106477.00    470970.60
 1320.22        2967.25           1466      107250.00    474440.90
 1320.25        2967.50           1469      107513.00    475621.70
 1320.28        2967.75           1473      107299.00    474660.90
 1320.31        2968.00           1476      106892.00    472833.60
 1320.33        2968.25           1479      104945.00    464095.20
 1320.36        2968.50           1483      100476.00    444055.70
 1320.39        2968.75           1486       95943.00    423754.80
 1320.42        2969.00           1489       90734.00    400458.10
 1320.45        2969.25           1493       84443.00    372367.40
 1320.47        2969.50           1496       79234.00    349145.30
 1320.50        2969.75           1499       74287.00    327122.30
 1320.53        2970.00           1502       69748.00    306942.10
 1320.56        2970.25           1506       63776.00    280429.50
 1320.59        2970.50           1509       59034.00    259408.60
 1320.61        2970.75           1512       54487.00    239277.90
 1320.64        2971.00           1516       47747.00    209484.60
 1320.67        2971.25           1519       42993.00    188503.30
 1320.70        2971.50           1522       38285.00    167752.00
 1320.73        2971.75           1526       31750.00    138992.10
 1320.75        2972.00           1529       26902.00    117689.70
 1320.78        2972.25           1532       21964.00     96020.79
 1320.81        2972.50           1536       15439.00     67432.45
 1320.84        2972.75           1539       10205.00     44537.04
 1320.87        2973.00           1542        5522.00     24079.43
 1320.89        2973.25           1546        1845.00      8034.70
 1320.92        2973.50           1549         870.00      3782.92
 1320.95        2973.75           1552         555.00      2409.51
 1320.98        2974.00           1556         400.00      1733.75
 1321.01        2974.25           1559         265.00      1145.20
 1321.03        2974.50           1562         233.00      1005.70
 1321.06        2974.75           1566         225.00       970.82
 1321.09        2975.00           1569         206.00       887.99
 1321.12        2975.25           1572         188.00       809.52
 1321.14        2975.50           1576         186.00       800.80
 1321.17        2975.75           1579         163.00       700.54
 1321.20        2976.00           1582         185.00       796.45
 1321.23        2976.25           1586         171.00       735.41
 1321.26        2976.50           1589         170.00       731.05
 1321.29        2976.75           1592         173.00       744.13
 1321.31        2977.00           1596         160.00       687.46
 1321.34        2977.25           1599         149.00       639.51
 1321.37        2977.50           1602         154.00       661.30
 1321.40        2977.75           1606         152.00       652.59
 1321.42        2978.00           1609         158.00       678.74
 1321.45        2978.25           1612         149.00       639.51
 1321.48        2978.50           1616         146.00       626.43
 1321.51        2978.75           1619         126.00       539.24
 1321.54        2979.00           1622         131.00       561.04
 1321.56        2979.25           1626         138.00       591.55
 1321.59        2979.50           1629         136.00       582.84
 1321.62        2979.75           1632         140.00       600.27
 1321.65        2980.00           1636         149.00       639.51
 1321.68        2980.25           1639         141.00       604.63
 1321.70        2980.50           1642         137.00       587.19
 1321.73        2980.75           1646         141.00       604.63
 1321.76        2981.00           1649         143.00       613.35
 1321.79        2981.25           1652         132.00       565.40
 1321.82        2981.50           1656         140.00       600.27
 1321.84        2981.75           1659         126.00       539.24
 1321.87        2982.00           1662         131.00       561.04
 1321.90        2982.25           1666         135.00       578.48
 1321.93        2982.50           1669         133.00       569.76
 1321.96        2982.75           1672         135.00       578.48
 1321.98        2983.00           1676         141.00       604.63
 1322.01        2983.25           1679         131.00       561.04
 1322.04        2983.50           1682         142.00       608.99
 1322.07        2983.75           1686         132.00       565.40
 1322.09        2984.00           1689         131.00       561.04
HS scan finished at 22:02:16
end
