************************************************************
  HS Scan of (1) Internal mercury lamp
************************************************************
Integration time is 0.2294 seconds per sample
dh180619El Arenosillo 37.1 6.73 2.804185pr1000
************************************************************
Dead Time -------------------------  3.1E-08 
Number of Cycles Used -------------  4 
Starting Wavelength (Angstroms) ---  2950 
Final Wavelength (Angstoms) -------  2984 
Wavelength Increment (Angstroms) --  .25 
Filter Wheel #1 Position ---------- (1) Ground quartz diffuser (ND=2.32)
Filter Wheel #2 Position ---------- (1) Neutral Density 0.494



************************************************************
HS scan start time = 02:10:03
Dark Count =  2.8 


Time (GMT)  Wavelength (Ang)  Step Number  Raw Counts  Counts/Second

  130.41        2950.00           1237         157.00       672.20
  130.48        2950.25           1240         150.00       641.69
  130.50        2950.50           1244         144.00       615.53
  130.53        2950.75           1247         138.00       589.37
  130.56        2951.00           1250         145.00       619.89
  130.58        2951.25           1254         135.00       576.30
  130.61        2951.50           1257         143.00       611.17
  130.64        2951.75           1260         148.00       632.97
  130.67        2952.00           1264         143.00       611.17
  130.70        2952.25           1267         154.00       659.12
  130.72        2952.50           1270         153.00       654.76
  130.75        2952.75           1273         141.00       602.45
  130.78        2953.00           1277         151.00       646.05
  130.81        2953.25           1280         143.00       611.17
  130.84        2953.50           1283         140.00       598.09
  130.86        2953.75           1287         148.00       632.97
  130.89        2954.00           1290         154.00       659.12
  130.92        2954.25           1293         149.00       637.33
  130.95        2954.50           1297         157.00       672.20
  130.98        2954.75           1300         155.00       663.48
  131.00        2955.00           1303         150.00       641.69
  131.03        2955.25           1307         146.00       624.25
  131.06        2955.50           1310         154.00       659.12
  131.09        2955.75           1313         157.00       672.20
  131.12        2956.00           1317         148.00       632.97
  131.14        2956.25           1320         160.00       685.28
  131.17        2956.50           1323         160.00       685.28
  131.20        2956.75           1326         151.00       646.05
  131.23        2957.00           1330         172.00       737.59
  131.25        2957.25           1333         160.00       685.28
  131.28        2957.50           1336         169.00       724.51
  131.31        2957.75           1340         176.00       755.03
  131.34        2958.00           1343         176.00       755.03
  131.37        2958.25           1346         184.00       789.91
  131.40        2958.50           1350         195.00       837.86
  131.42        2958.75           1353         197.00       846.58
  131.45        2959.00           1356         233.00      1003.52
  131.48        2959.25           1360         314.00      1356.64
  131.51        2959.50           1363         446.00      1932.11
  131.53        2959.75           1366         552.00      2394.25
  131.56        2960.00           1370         722.00      3135.44
  131.59        2960.25           1373         885.00      3846.14
  131.62        2960.50           1376        1030.00      4478.39
  131.65        2960.75           1380        1160.00      5045.25
  131.67        2961.00           1383        1366.00      5943.55
  131.70        2961.25           1386        1483.00      6453.78
  131.73        2961.50           1390        1613.00      7020.71
  131.75        2961.75           1393        2330.00     10147.92
  131.78        2962.00           1396        4870.00     21231.06
  131.81        2962.25           1399        9027.00     39386.34
  131.84        2962.50           1403       15702.00     68581.57
  131.87        2962.75           1406       20883.00     91278.84
  131.89        2963.00           1409       26278.00    114947.70
  131.92        2963.25           1413       33830.00    148138.20
  131.95        2963.50           1416       38945.00    170657.20
  131.98        2963.75           1419       43968.00    192801.90
  132.01        2964.00           1423       50200.00    220319.20
  132.04        2964.25           1426       55107.00    242019.10
  132.07        2964.50           1429       59855.00    263043.80
  132.10        2964.75           1433       65783.00    289332.50
  132.13        2965.00           1436       70793.00    311583.60
  132.16        2965.25           1439       76284.00    336006.60
  132.18        2965.50           1443       82363.00    363088.40
  132.21        2965.75           1446       86281.00    380567.20
  132.24        2966.00           1449       90492.00    399374.40
  132.27        2966.25           1453       95987.00    423949.40
  132.30        2966.50           1456      100816.00    445577.20
  132.32        2966.75           1459      104833.00    463590.40
  132.35        2967.00           1463      107213.00    474272.50
  132.38        2967.25           1466      107549.00    475781.10
  132.41        2967.50           1469      107470.00    475426.40
  132.44        2967.75           1473      107561.00    475835.00
  132.47        2968.00           1476      106627.00    471641.70
  132.49        2968.25           1479      104642.00    462733.50
  132.52        2968.50           1483       99166.00    438184.00
  132.55        2968.75           1486       94661.00    418015.80
  132.58        2969.00           1489       89149.00    393373.90
  132.61        2969.25           1493       82874.00    365367.00
  132.63        2969.50           1496       77658.00    342123.80
  132.66        2969.75           1499       72707.00    320092.50
  132.69        2970.00           1502       68215.00    300130.00
  132.72        2970.25           1506       62579.00    275118.50
  132.75        2970.50           1509       57783.00    253865.40
  132.77        2970.75           1512       52950.00    232476.70
  132.80        2971.00           1516       46602.00    204426.50
  132.83        2971.25           1519       42131.00    184699.70
  132.85        2971.50           1522       37580.00    164644.70
  132.88        2971.75           1526       31137.00    136294.80
  132.91        2972.00           1529       25994.00    113700.90
  132.94        2972.25           1532       20885.00     91287.62
  132.97        2972.50           1536       14608.00     63793.00
  133.00        2972.75           1539        9342.00     40762.90
  133.02        2973.00           1542        4699.00     20484.67
  133.05        2973.25           1546        1506.00      6554.08
  133.08        2973.50           1549         726.00      3152.88
  133.11        2973.75           1552         489.00      2119.58
  133.14        2974.00           1556         359.00      1552.82
  133.16        2974.25           1559         255.00      1099.43
  133.19        2974.50           1562         236.00      1016.60
  133.22        2974.75           1566         207.00       890.17
  133.25        2975.00           1569         196.00       842.22
  133.27        2975.25           1572         191.00       820.42
  133.30        2975.50           1576         188.00       807.34
  133.33        2975.75           1579         197.00       846.58
  133.36        2976.00           1582         173.00       741.95
  133.39        2976.25           1586         173.00       741.95
  133.41        2976.50           1589         166.00       711.44
  133.44        2976.75           1592         161.00       689.64
  133.47        2977.00           1596         158.00       676.56
  133.50        2977.25           1599         153.00       654.76
  133.53        2977.50           1602         163.00       698.36
  133.55        2977.75           1606         140.00       598.09
  133.58        2978.00           1609         142.00       606.81
  133.61        2978.25           1612         145.00       619.89
  133.64        2978.50           1616         157.00       672.20
  133.67        2978.75           1619         139.00       593.73
  133.69        2979.00           1622         138.00       589.37
  133.72        2979.25           1626         140.00       598.09
  133.75        2979.50           1629         128.00       545.78
  133.78        2979.75           1632         144.00       615.53
  133.81        2980.00           1636         137.00       585.01
  133.83        2980.25           1639         128.00       545.78
  133.86        2980.50           1642         133.00       567.58
  133.89        2980.75           1646         135.00       576.30
  133.91        2981.00           1649         137.00       585.01
  133.94        2981.25           1652         127.00       541.42
  133.97        2981.50           1656         129.00       550.14
  134.00        2981.75           1659         129.00       550.14
  134.03        2982.00           1662         137.00       585.01
  134.05        2982.25           1666         125.00       532.70
  134.08        2982.50           1669         128.00       545.78
  134.11        2982.75           1672         138.00       589.37
  134.14        2983.00           1676         123.00       523.98
  134.17        2983.25           1679         133.00       567.58
  134.19        2983.50           1682         126.00       537.06
  134.22        2983.75           1686         132.00       563.22
  134.25        2984.00           1689         128.00       545.78
HS scan finished at 02:14:26
end
************************************************************
  HS Scan of (1) Internal mercury lamp
************************************************************
Integration time is 0.2294 seconds per sample
dh180619El Arenosillo 37.1 6.73 3.018777pr1000
************************************************************
Dead Time -------------------------  3.1E-08 
Number of Cycles Used -------------  4 
Starting Wavelength (Angstroms) ---  2950 
Final Wavelength (Angstoms) -------  2984 
Wavelength Increment (Angstroms) --  .25 
Filter Wheel #1 Position ---------- (1) Ground quartz diffuser (ND=2.32)
Filter Wheel #2 Position ---------- (1) Neutral Density 0.494



************************************************************
HS scan start time = 21:42:13
Dark Count =  2 


Time (GMT)  Wavelength (Ang)  Step Number  Raw Counts  Counts/Second

 1302.57        2950.00           1237         132.00       566.71
 1302.64        2950.25           1240         139.00       597.22
 1302.67        2950.50           1244         135.00       579.78
 1302.69        2950.75           1247         131.00       562.35
 1302.72        2951.00           1250         127.00       544.91
 1302.75        2951.25           1254         132.00       566.71
 1302.78        2951.50           1257         138.00       592.86
 1302.80        2951.75           1260         142.00       610.30
 1302.83        2952.00           1264         139.00       597.22
 1302.86        2952.25           1267         145.00       623.38
 1302.89        2952.50           1270         134.00       575.42
 1302.92        2952.75           1273         128.00       549.27
 1302.94        2953.00           1277         140.00       601.58
 1302.97        2953.25           1280         131.00       562.35
 1303.00        2953.50           1283         130.00       557.99
 1303.03        2953.75           1287         146.00       627.74
 1303.06        2954.00           1290         136.00       584.14
 1303.08        2954.25           1293         138.00       592.86
 1303.11        2954.50           1297         136.00       584.14
 1303.14        2954.75           1300         144.00       619.02
 1303.17        2955.00           1303         134.00       575.42
 1303.20        2955.25           1307         142.00       610.30
 1303.22        2955.50           1310         145.00       623.38
 1303.25        2955.75           1313         145.00       623.38
 1303.28        2956.00           1317         140.00       601.58
 1303.31        2956.25           1320         152.00       653.89
 1303.34        2956.50           1323         137.00       588.50
 1303.36        2956.75           1326         151.00       649.53
 1303.39        2957.00           1330         165.00       710.56
 1303.42        2957.25           1333         163.00       701.85
 1303.45        2957.50           1336         165.00       710.56
 1303.48        2957.75           1340         163.00       701.85
 1303.50        2958.00           1343         166.00       714.92
 1303.53        2958.25           1346         181.00       780.32
 1303.56        2958.50           1350         186.00       802.11
 1303.59        2958.75           1353         203.00       876.22
 1303.62        2959.00           1356         234.00      1011.37
 1303.65        2959.25           1360         318.00      1377.57
 1303.67        2959.50           1363         452.00      1961.76
 1303.70        2959.75           1366         588.00      2554.69
 1303.73        2960.00           1370         744.00      3234.85
 1303.76        2960.25           1373         903.00      3928.12
 1303.78        2960.50           1376        1060.00      4612.69
 1303.81        2960.75           1380        1195.00      5201.36
 1303.84        2961.00           1383        1417.00      6169.44
 1303.87        2961.25           1386        1560.00      6793.06
 1303.90        2961.50           1390        1730.00      7534.45
 1303.92        2961.75           1393        2114.00      9209.26
 1303.95        2962.00           1396        4073.00     17756.07
 1303.98        2962.25           1399        7667.00     33447.92
 1304.01        2962.50           1403       14343.00     62636.76
 1304.04        2962.75           1406       20020.00     87499.46
 1304.06        2963.00           1409       25780.00    112764.90
 1304.09        2963.25           1413       33005.00    144512.60
 1304.12        2963.50           1416       38615.00    169207.00
 1304.15        2963.75           1419       44011.00    192995.20
 1304.18        2964.00           1423       51015.00    223924.80
 1304.20        2964.25           1426       56318.00    247382.50
 1304.23        2964.50           1429       61001.00    268126.10
 1304.26        2964.75           1433       67650.00    297624.40
 1304.29        2965.00           1436       72246.00    318046.30
 1304.32        2965.25           1439       77029.00    339326.70
 1304.34        2965.50           1443       83663.00    368889.30
 1304.37        2965.75           1446       88613.00    390983.20
 1304.40        2966.00           1449       93288.00    411877.70
 1304.43        2966.25           1453       99236.00    438501.10
 1304.46        2966.50           1456      104347.00    461413.50
 1304.48        2966.75           1459      107794.00    476884.90
 1304.51        2967.00           1463      110357.00    488398.20
 1304.54        2967.25           1466      111063.00    491571.00
 1304.57        2967.50           1469      111348.00    492852.10
 1304.60        2967.75           1473      110891.00    490798.00
 1304.62        2968.00           1476      110654.00    489732.80
 1304.65        2968.25           1479      108302.00    479166.20
 1304.68        2968.50           1483      103662.00    458340.80
 1304.71        2968.75           1486       98779.00    436454.00
 1304.74        2969.00           1489       94070.00    415375.40
 1304.76        2969.25           1493       86986.00    383717.80
 1304.79        2969.50           1496       81837.00    360746.80
 1304.82        2969.75           1499       76879.00    338658.90
 1304.85        2970.00           1502       71494.00    314703.00
 1304.88        2970.25           1506       64540.00    283820.20
 1304.90        2970.50           1509       59658.00    262174.50
 1304.93        2970.75           1512       54899.00    241102.20
 1304.96        2971.00           1516       48546.00    213014.90
 1304.99        2971.25           1519       43539.00    190913.00
 1305.02        2971.50           1522       38618.00    169220.20
 1305.04        2971.75           1526       32629.00    142858.80
 1305.07        2972.00           1529       27635.00    120910.10
 1305.10        2972.25           1532       22447.00     98140.33
 1305.13        2972.50           1536       16262.00     71036.82
 1305.16        2972.75           1539       11261.00     49155.06
 1305.18        2973.00           1542        5991.00     26128.39
 1305.21        2973.25           1546        1677.00      7303.31
 1305.24        2973.50           1549         625.00      2716.01
 1305.27        2973.75           1552         382.00      1656.58
 1305.30        2974.00           1556         268.00      1159.59
 1305.32        2974.25           1559         220.00       950.33
 1305.35        2974.50           1562         209.00       902.38
 1305.38        2974.75           1566         197.00       850.07
 1305.41        2975.00           1569         189.00       815.19
 1305.43        2975.25           1572         187.00       806.47
 1305.46        2975.50           1576         179.00       771.60
 1305.49        2975.75           1579         178.00       767.24
 1305.52        2976.00           1582         172.00       741.08
 1305.55        2976.25           1586         150.00       645.17
 1305.57        2976.50           1589         167.00       719.28
 1305.60        2976.75           1592         164.00       706.21
 1305.63        2977.00           1596         157.00       675.69
 1305.66        2977.25           1599         154.00       662.61
 1305.69        2977.50           1602         146.00       627.74
 1305.71        2977.75           1606         152.00       653.89
 1305.74        2978.00           1609         144.00       619.02
 1305.77        2978.25           1612         140.00       601.58
 1305.80        2978.50           1616         138.00       592.86
 1305.83        2978.75           1619         142.00       610.30
 1305.85        2979.00           1622         134.00       575.42
 1305.88        2979.25           1626         144.00       619.02
 1305.91        2979.50           1629         136.00       584.14
 1305.94        2979.75           1632         141.00       605.94
 1305.96        2980.00           1636         116.00       496.96
 1305.99        2980.25           1639         123.00       527.47
 1306.02        2980.50           1642         129.00       553.63
 1306.05        2980.75           1646         135.00       579.78
 1306.08        2981.00           1649         123.00       527.47
 1306.10        2981.25           1652         130.00       557.99
 1306.13        2981.50           1656         125.00       536.19
 1306.16        2981.75           1659         128.00       549.27
 1306.19        2982.00           1662         128.00       549.27
 1306.22        2982.25           1666         138.00       592.86
 1306.24        2982.50           1669         129.00       553.63
 1306.27        2982.75           1672         112.00       479.52
 1306.30        2983.00           1676         129.00       553.63
 1306.33        2983.25           1679         129.00       553.63
 1306.36        2983.50           1682         126.00       540.55
 1306.38        2983.75           1686         115.00       492.60
 1306.41        2984.00           1689         133.00       571.07
HS scan finished at 21:46:36
end
