************************************************************
  HS Scan of (1) Internal mercury lamp
************************************************************
Integration time is 0.2294 seconds per sample
dh190619El Arenosillo 37.1 6.73 3.018777pr1000
************************************************************
Dead Time -------------------------  3.1E-08 
Number of Cycles Used -------------  4 
Starting Wavelength (Angstroms) ---  2950 
Final Wavelength (Angstoms) -------  2984 
Wavelength Increment (Angstroms) --  .25 
Filter Wheel #1 Position ---------- (1) Ground quartz diffuser (ND=2.32)
Filter Wheel #2 Position ---------- (1) Neutral Density 0.494



************************************************************
HS scan start time = 02:09:58
Dark Count =  4.8 


Time (GMT)  Wavelength (Ang)  Step Number  Raw Counts  Counts/Second

  130.33        2950.00           1237         139.00       585.01
  130.39        2950.25           1240         140.00       589.37
  130.42        2950.50           1244         148.00       624.25
  130.45        2950.75           1247         143.00       602.45
  130.48        2951.00           1250         137.00       576.30
  130.50        2951.25           1254         134.00       563.22
  130.53        2951.50           1257         153.00       646.05
  130.56        2951.75           1260         138.00       580.66
  130.59        2952.00           1264         140.00       589.37
  130.61        2952.25           1267         149.00       628.61
  130.64        2952.50           1270         135.00       567.58
  130.67        2952.75           1273         143.00       602.45
  130.70        2953.00           1277         133.00       558.86
  130.73        2953.25           1280         150.00       632.97
  130.75        2953.50           1283         143.00       602.45
  130.78        2953.75           1287         137.00       576.30
  130.81        2954.00           1290         140.00       589.37
  130.84        2954.25           1293         142.00       598.09
  130.87        2954.50           1297         135.00       567.58
  130.89        2954.75           1300         146.00       615.53
  130.92        2955.00           1303         153.00       646.05
  130.95        2955.25           1307         155.00       654.76
  130.98        2955.50           1310         144.00       606.81
  131.01        2955.75           1313         147.00       619.89
  131.03        2956.00           1317         142.00       598.09
  131.06        2956.25           1320         138.00       580.66
  131.09        2956.50           1323         152.00       641.69
  131.12        2956.75           1326         158.00       667.84
  131.15        2957.00           1330         167.00       707.08
  131.17        2957.25           1333         166.00       702.72
  131.20        2957.50           1336         163.00       689.64
  131.23        2957.75           1340         161.00       680.92
  131.26        2958.00           1343         166.00       702.72
  131.28        2958.25           1346         177.00       750.67
  131.31        2958.50           1350         175.00       741.95
  131.34        2958.75           1353         203.00       864.02
  131.37        2959.00           1356         266.00      1138.66
  131.39        2959.25           1360         346.00      1487.43
  131.42        2959.50           1363         496.00      2141.38
  131.45        2959.75           1366         639.00      2764.84
  131.48        2960.00           1370         799.00      3462.45
  131.51        2960.25           1373        1021.00      4430.43
  131.53        2960.50           1376        1156.00      5019.09
  131.56        2960.75           1380        1287.00      5590.33
  131.59        2961.00           1383        1463.00      6357.84
  131.62        2961.25           1386        1660.00      7216.96
  131.65        2961.50           1390        2155.00      9375.87
  131.67        2961.75           1393        4566.00     19895.44
  131.70        2962.00           1396        8442.00     36821.43
  131.73        2962.25           1399       13374.00     58384.57
  131.76        2962.50           1403       20909.00     91384.06
  131.79        2962.75           1406       26939.00    117841.20
  131.81        2963.00           1409       33320.00    145885.80
  131.84        2963.25           1413       40214.00    176240.10
  131.87        2963.50           1416       45190.00    198185.10
  131.90        2963.75           1419       50156.00    220115.90
  131.93        2964.00           1423       56805.00    249526.00
  131.95        2964.25           1426       61999.00    272537.90
  131.98        2964.50           1429       67312.00    296111.10
  132.01        2964.75           1433       74370.00    327480.40
  132.04        2965.00           1436       79582.00    350684.50
  132.07        2965.25           1439       84080.00    370736.90
  132.09        2965.50           1443       89983.00    397091.00
  132.12        2965.75           1446       94834.00    418780.90
  132.15        2966.00           1449       99488.00    439617.50
  132.18        2966.25           1453      106637.00    471677.60
  132.20        2966.50           1456      110922.00    490924.70
  132.23        2966.75           1459      112882.00    499736.30
  132.26        2967.00           1463      113606.00    502992.40
  132.29        2967.25           1466      113860.00    504134.80
  132.32        2967.50           1469      113763.00    503698.50
  132.34        2967.75           1473      112507.00    498050.00
  132.37        2968.00           1476      109948.00    486547.70
  132.40        2968.25           1479      106162.00    469545.50
  132.43        2968.50           1483       99530.00    439805.70
  132.46        2968.75           1486       94250.00    416168.10
  132.48        2969.00           1489       89374.00    394370.10
  132.51        2969.25           1493       82729.00    364711.40
  132.54        2969.50           1496       77401.00    340970.50
  132.57        2969.75           1499       72290.00    318229.50
  132.59        2970.00           1502       66971.00    294597.10
  132.62        2970.25           1506       60337.00    265170.90
  132.65        2970.50           1509       55465.00    243594.60
  132.68        2970.75           1512       50325.00    220862.80
  132.71        2971.00           1516       43311.00    189894.90
  132.73        2971.25           1519       37954.00    166283.00
  132.76        2971.50           1522       32412.00    141892.20
  132.79        2971.75           1526       25365.00    110931.00
  132.82        2972.00           1529       19944.00     87154.07
  132.85        2972.25           1532       14092.00     61526.14
  132.87        2972.50           1536        7422.00     32365.50
  132.90        2972.75           1539        3682.00     16037.62
  132.93        2973.00           1542        1492.00      6484.30
  132.96        2973.25           1546         735.00      3183.40
  132.99        2973.50           1549         470.00      2028.03
  133.01        2973.75           1552         359.00      1544.10
  133.04        2974.00           1556         275.00      1177.90
  133.07        2974.25           1559         227.00       968.64
  133.10        2974.50           1562         198.00       842.22
  133.13        2974.75           1566         201.00       855.30
  133.15        2975.00           1569         195.00       829.14
  133.18        2975.25           1572         181.00       768.11
  133.21        2975.50           1576         166.00       702.72
  133.24        2975.75           1579         166.00       702.72
  133.27        2976.00           1582         177.00       750.67
  133.29        2976.25           1586         164.00       694.00
  133.32        2976.50           1589         158.00       667.84
  133.35        2976.75           1592         165.00       698.36
  133.38        2977.00           1596         146.00       615.53
  133.40        2977.25           1599         153.00       646.05
  133.43        2977.50           1602         143.00       602.45
  133.46        2977.75           1606         148.00       624.25
  133.49        2978.00           1609         141.00       593.73
  133.51        2978.25           1612         157.00       663.48
  133.54        2978.50           1616         135.00       567.58
  133.57        2978.75           1619         141.00       593.73
  133.60        2979.00           1622         143.00       602.45
  133.63        2979.25           1626         146.00       615.53
  133.65        2979.50           1629         130.00       545.78
  133.68        2979.75           1632         131.00       550.14
  133.71        2980.00           1636         130.00       545.78
  133.74        2980.25           1639         135.00       567.58
  133.77        2980.50           1642         137.00       576.30
  133.79        2980.75           1646         132.00       554.50
  133.82        2981.00           1649         131.00       550.14
  133.85        2981.25           1652         129.00       541.42
  133.88        2981.50           1656         123.00       515.27
  133.91        2981.75           1659         126.00       528.34
  133.93        2982.00           1662         128.00       537.06
  133.96        2982.25           1666         115.00       480.39
  133.99        2982.50           1669         119.00       497.83
  134.02        2982.75           1672         127.00       532.70
  134.04        2983.00           1676         117.00       489.11
  134.07        2983.25           1679         127.00       532.70
  134.10        2983.50           1682         130.00       545.78
  134.13        2983.75           1686         129.00       541.42
  134.16        2984.00           1689         131.00       550.14
HS scan finished at 02:14:20
end
************************************************************
  HS Scan of (1) Internal mercury lamp
************************************************************
Integration time is 0.2294 seconds per sample
dh190619El Arenosillo 37.1 6.73 2.965129pr1000
************************************************************
Dead Time -------------------------  3.1E-08 
Number of Cycles Used -------------  4 
Starting Wavelength (Angstroms) ---  2950 
Final Wavelength (Angstoms) -------  2984 
Wavelength Increment (Angstroms) --  .25 
Filter Wheel #1 Position ---------- (1) Ground quartz diffuser (ND=2.32)
Filter Wheel #2 Position ---------- (1) Neutral Density 0.494



************************************************************
HS scan start time = 21:56:44
Dark Count =  4 


Time (GMT)  Wavelength (Ang)  Step Number  Raw Counts  Counts/Second

 1317.09        2950.00           1237         151.00       640.81
 1317.15        2950.25           1240         140.00       592.86
 1317.18        2950.50           1244         139.00       588.50
 1317.21        2950.75           1247         148.00       627.74
 1317.24        2951.00           1250         131.00       553.63
 1317.27        2951.25           1254         139.00       588.50
 1317.29        2951.50           1257         132.00       557.99
 1317.32        2951.75           1260         143.00       605.94
 1317.35        2952.00           1264         139.00       588.50
 1317.38        2952.25           1267         146.00       619.02
 1317.41        2952.50           1270         148.00       627.74
 1317.43        2952.75           1273         160.00       680.05
 1317.46        2953.00           1277         150.00       636.46
 1317.49        2953.25           1280         150.00       636.46
 1317.52        2953.50           1283         145.00       614.66
 1317.55        2953.75           1287         155.00       658.25
 1317.57        2954.00           1290         134.00       566.71
 1317.60        2954.25           1293         151.00       640.81
 1317.63        2954.50           1297         167.00       710.56
 1317.66        2954.75           1300         149.00       632.10
 1317.69        2955.00           1303         156.00       662.61
 1317.71        2955.25           1307         150.00       636.46
 1317.74        2955.50           1310         147.00       623.38
 1317.77        2955.75           1313         144.00       610.30
 1317.80        2956.00           1317         154.00       653.89
 1317.83        2956.25           1320         145.00       614.66
 1317.85        2956.50           1323         152.00       645.17
 1317.88        2956.75           1326         146.00       619.02
 1317.91        2957.00           1330         175.00       745.44
 1317.94        2957.25           1333         167.00       710.56
 1317.96        2957.50           1336         164.00       697.49
 1317.99        2957.75           1340         162.00       688.77
 1318.02        2958.00           1343         174.00       741.08
 1318.05        2958.25           1346         179.00       762.88
 1318.08        2958.50           1350         190.00       810.83
 1318.10        2958.75           1353         198.00       845.71
 1318.13        2959.00           1356         242.00      1037.52
 1318.16        2959.25           1360         313.00      1347.05
 1318.19        2959.50           1363         462.00      1996.64
 1318.22        2959.75           1366         586.00      2537.25
 1318.24        2960.00           1370         711.00      3082.25
 1318.27        2960.25           1373         937.00      4067.64
 1318.30        2960.50           1376        1048.00      4551.65
 1318.33        2960.75           1380        1201.00      5218.80
 1318.36        2961.00           1383        1400.00      6086.59
 1318.38        2961.25           1386        1537.00      6684.04
 1318.41        2961.50           1390        1714.00      7455.95
 1318.44        2961.75           1393        2096.00      9122.02
 1318.47        2962.00           1396        3900.00     16992.39
 1318.50        2962.25           1399        7494.00     32683.49
 1318.52        2962.50           1403       14020.00     61214.58
 1318.55        2962.75           1406       19268.00     84195.06
 1318.58        2963.00           1409       25073.00    109652.80
 1318.61        2963.25           1413       32393.00    141812.10
 1318.64        2963.50           1416       38417.00    168325.90
 1318.66        2963.75           1419       44277.00    194159.90
 1318.69        2964.00           1423       51095.00    224269.60
 1318.72        2964.25           1426       56220.00    246939.80
 1318.75        2964.50           1429       60894.00    267643.00
 1318.78        2964.75           1433       67516.00    297020.50
 1318.80        2965.00           1436       72274.00    318161.90
 1318.83        2965.25           1439       77035.00    339344.50
 1318.86        2965.50           1443       84149.00    371048.30
 1318.89        2965.75           1446       89652.00    395615.60
 1318.92        2966.00           1449       93908.00    414641.80
 1318.94        2966.25           1453       99855.00    441265.40
 1318.97        2966.50           1456      104298.00    461184.70
 1319.00        2966.75           1459      108676.00    480837.00
 1319.03        2967.00           1463      111850.00    495099.70
 1319.05        2967.25           1466      112299.00    497118.40
 1319.08        2967.50           1469      112349.00    497343.20
 1319.11        2967.75           1473      112150.00    496448.40
 1319.14        2968.00           1476      111616.00    494047.70
 1319.17        2968.25           1479      109314.00    483702.90
 1319.19        2968.50           1483      105034.00    464486.80
 1319.22        2968.75           1486      100270.00    443124.90
 1319.25        2969.00           1489       95223.00    420525.00
 1319.28        2969.25           1493       88254.00    389370.90
 1319.31        2969.50           1496       83150.00    366592.40
 1319.33        2969.75           1499       78256.00    344781.50
 1319.36        2970.00           1502       72413.00    318779.90
 1319.39        2970.25           1506       66011.00    290339.10
 1319.42        2970.50           1509       60909.00    267709.50
 1319.45        2970.75           1512       56269.00    247156.70
 1319.47        2971.00           1516       49555.00    217463.70
 1319.50        2971.25           1519       44627.00    195704.20
 1319.53        2971.50           1522       39889.00    174811.40
 1319.56        2971.75           1526       33334.00    145950.90
 1319.59        2972.00           1529       28429.00    124388.90
 1319.61        2972.25           1532       23058.00    100811.50
 1319.64        2972.50           1536       17092.00     74662.59
 1319.67        2972.75           1539       12054.00     52614.08
 1319.70        2973.00           1542        6729.00     29342.29
 1319.73        2973.25           1546        2032.00      8842.88
 1319.75        2973.50           1549         746.00      3234.85
 1319.78        2973.75           1552         430.00      1857.13
 1319.81        2974.00           1556         289.00      1242.42
 1319.84        2974.25           1559         225.00       963.41
 1319.87        2974.50           1562         215.00       919.82
 1319.89        2974.75           1566         194.00       828.27
 1319.92        2975.00           1569         205.00       876.22
 1319.95        2975.25           1572         194.00       828.27
 1319.98        2975.50           1576         175.00       745.44
 1320.01        2975.75           1579         177.00       754.16
 1320.03        2976.00           1582         177.00       754.16
 1320.06        2976.25           1586         169.00       719.28
 1320.09        2976.50           1589         157.00       666.97
 1320.12        2976.75           1592         166.00       706.21
 1320.14        2977.00           1596         154.00       653.89
 1320.17        2977.25           1599         153.00       649.53
 1320.20        2977.50           1602         146.00       619.02
 1320.23        2977.75           1606         152.00       645.17
 1320.26        2978.00           1609         135.00       571.07
 1320.28        2978.25           1612         153.00       649.53
 1320.31        2978.50           1616         140.00       592.86
 1320.34        2978.75           1619         132.00       557.99
 1320.37        2979.00           1622         124.00       523.11
 1320.39        2979.25           1626         131.00       553.63
 1320.42        2979.50           1629         142.00       601.58
 1320.45        2979.75           1632         133.00       562.35
 1320.48        2980.00           1636         145.00       614.66
 1320.51        2980.25           1639         137.00       579.78
 1320.53        2980.50           1642         141.00       597.22
 1320.56        2980.75           1646         128.00       540.55
 1320.59        2981.00           1649         143.00       605.94
 1320.62        2981.25           1652         131.00       553.63
 1320.65        2981.50           1656         132.00       557.99
 1320.67        2981.75           1659         135.00       571.07
 1320.70        2982.00           1662         129.00       544.91
 1320.73        2982.25           1666         142.00       601.58
 1320.76        2982.50           1669         123.00       518.75
 1320.79        2982.75           1672         121.00       510.03
 1320.81        2983.00           1676         122.00       514.39
 1320.84        2983.25           1679         138.00       584.14
 1320.87        2983.50           1682         129.00       544.91
 1320.90        2983.75           1686         131.00       553.63
 1320.92        2984.00           1689         127.00       536.19
HS scan finished at 22:01:06
end
