************************************************************
  HS Scan of (1) Internal mercury lamp
************************************************************
Integration time is 0.2294 seconds per sample
dh220619El Arenosillo 37.1 6.73 3.072425pr1000
************************************************************
Dead Time -------------------------  3.1E-08 
Number of Cycles Used -------------  4 
Starting Wavelength (Angstroms) ---  2950 
Final Wavelength (Angstoms) -------  2984 
Wavelength Increment (Angstroms) --  .25 
Filter Wheel #1 Position ---------- (1) Ground quartz diffuser (ND=2.32)
Filter Wheel #2 Position ---------- (1) Neutral Density 0.494



************************************************************
HS scan start time = 02:06:57
Dark Count =  6.1 


Time (GMT)  Wavelength (Ang)  Step Number  Raw Counts  Counts/Second

  127.30        2950.00           1237         133.00       553.19
  127.36        2950.25           1240         138.00       574.99
  127.39        2950.50           1244         142.00       592.43
  127.42        2950.75           1247         135.00       561.91
  127.45        2951.00           1250         131.00       544.47
  127.48        2951.25           1254         145.00       605.50
  127.50        2951.50           1257         142.00       592.43
  127.53        2951.75           1260         154.00       644.74
  127.56        2952.00           1264         135.00       561.91
  127.59        2952.25           1267         128.00       531.39
  127.62        2952.50           1270         141.00       588.07
  127.64        2952.75           1273         133.00       553.19
  127.67        2953.00           1277         142.00       592.43
  127.70        2953.25           1280         140.00       583.71
  127.73        2953.50           1283         135.00       561.91
  127.76        2953.75           1287         137.00       570.63
  127.78        2954.00           1290         146.00       609.86
  127.81        2954.25           1293         144.00       601.14
  127.84        2954.50           1297         150.00       627.30
  127.87        2954.75           1300         135.00       561.91
  127.90        2955.00           1303         147.00       614.22
  127.92        2955.25           1307         137.00       570.63
  127.95        2955.50           1310         145.00       605.50
  127.98        2955.75           1313         152.00       636.02
  128.01        2956.00           1317         157.00       657.82
  128.03        2956.25           1320         160.00       670.89
  128.06        2956.50           1323         144.00       601.14
  128.09        2956.75           1326         161.00       675.25
  128.12        2957.00           1330         160.00       670.89
  128.15        2957.25           1333         174.00       731.93
  128.17        2957.50           1336         164.00       688.33
  128.20        2957.75           1340         163.00       683.97
  128.23        2958.00           1343         166.00       697.05
  128.26        2958.25           1346         181.00       762.44
  128.28        2958.50           1350         194.00       819.11
  128.31        2958.75           1353         200.00       845.27
  128.34        2959.00           1356         262.00      1115.56
  128.37        2959.25           1360         349.00      1494.84
  128.40        2959.50           1363         527.00      2270.87
  128.42        2959.75           1366         641.00      2767.89
  128.45        2960.00           1370         778.00      3365.22
  128.48        2960.25           1373         958.00      4150.05
  128.51        2960.50           1376        1100.00      4769.23
  128.53        2960.75           1380        1256.00      5449.48
  128.56        2961.00           1383        1424.00      6182.09
  128.59        2961.25           1386        1615.00      7015.04
  128.62        2961.50           1390        2239.00      9736.59
  128.65        2961.75           1393        4584.00     19968.33
  128.67        2962.00           1396        9208.00     40162.88
  128.70        2962.25           1399       14597.00     63730.41
  128.73        2962.50           1403       22335.00     97631.14
  128.76        2962.75           1406       27683.00    121102.90
  128.79        2963.00           1409       32689.00    143104.70
  128.82        2963.25           1413       38938.00    170611.90
  128.84        2963.50           1416       44280.00    194163.90
  128.87        2963.75           1419       49341.00    216508.90
  128.90        2964.00           1423       56291.00    247244.80
  128.93        2964.25           1426       61779.00    271556.80
  128.96        2964.50           1429       66742.00    293574.70
  128.98        2964.75           1433       72865.00    320780.50
  129.01        2965.00           1436       77248.00    340283.50
  129.04        2965.25           1439       82651.00    364357.80
  129.07        2965.50           1443       89786.00    396204.90
  129.10        2965.75           1446       95364.00    421146.60
  129.12        2966.00           1449      100682.00    444961.80
  129.15        2966.25           1453      106617.00    471582.00
  129.18        2966.50           1456      110659.00    489736.90
  129.21        2966.75           1459      113261.00    501434.80
  129.24        2967.00           1463      113673.00    503287.90
  129.26        2967.25           1466      113843.00    504052.60
  129.29        2967.50           1469      113655.00    503206.90
  129.32        2967.75           1473      113205.00    501183.00
  129.35        2968.00           1476      110746.00    490127.80
  129.38        2968.25           1479      106652.00    471739.10
  129.40        2968.50           1483      100286.00    443187.20
  129.43        2968.75           1486       95169.00    420274.00
  129.46        2969.00           1489       89992.00    397125.30
  129.49        2969.25           1493       82783.00    364946.40
  129.52        2969.50           1496       78150.00    344300.00
  129.54        2969.75           1499       73150.00    322047.90
  129.57        2970.00           1502       67954.00    298956.20
  129.60        2970.25           1506       61208.00    269025.50
  129.63        2970.50           1509       56061.00    246226.70
  129.66        2970.75           1512       50397.00    221175.20
  129.68        2971.00           1516       43273.00    189721.50
  129.71        2971.25           1519       37651.00    164942.80
  129.74        2971.50           1522       31888.00    139582.20
  129.77        2971.75           1526       25193.00    110170.30
  129.80        2972.00           1529       20337.00     88870.92
  129.82        2972.25           1532       15706.00     68584.65
  129.85        2972.50           1536        9001.00     39258.30
  129.88        2972.75           1539        4317.00     18803.02
  129.91        2973.00           1542        1584.00      6879.85
  129.94        2973.25           1546         695.00      3003.33
  129.96        2973.50           1549         468.00      2013.64
  129.99        2973.75           1552         337.00      1442.52
  130.02        2974.00           1556         257.00      1093.76
  130.05        2974.25           1559         216.00       915.02
  130.08        2974.50           1562         204.00       862.71
  130.11        2974.75           1566         196.00       827.83
  130.14        2975.00           1569         193.00       814.75
  130.17        2975.25           1572         189.00       797.32
  130.20        2975.50           1576         177.00       745.00
  130.22        2975.75           1579         181.00       762.44
  130.25        2976.00           1582         174.00       731.93
  130.28        2976.25           1586         167.00       701.41
  130.31        2976.50           1589         161.00       675.25
  130.33        2976.75           1592         158.00       662.18
  130.36        2977.00           1596         163.00       683.97
  130.39        2977.25           1599         149.00       622.94
  130.42        2977.50           1602         140.00       583.71
  130.45        2977.75           1606         149.00       622.94
  130.47        2978.00           1609         144.00       601.14
  130.50        2978.25           1612         139.00       579.35
  130.53        2978.50           1616         145.00       605.50
  130.56        2978.75           1619         149.00       622.94
  130.59        2979.00           1622         129.00       535.75
  130.61        2979.25           1626         135.00       561.91
  130.64        2979.50           1629         138.00       574.99
  130.67        2979.75           1632         134.00       557.55
  130.70        2980.00           1636         133.00       553.19
  130.72        2980.25           1639         136.00       566.27
  130.75        2980.50           1642         128.00       531.39
  130.78        2980.75           1646         128.00       531.39
  130.81        2981.00           1649         130.00       540.11
  130.84        2981.25           1652         124.00       513.96
  130.86        2981.50           1656         125.00       518.32
  130.89        2981.75           1659         128.00       531.39
  130.92        2982.00           1662         133.00       553.19
  130.95        2982.25           1666         133.00       553.19
  130.98        2982.50           1669         121.00       500.88
  131.00        2982.75           1672         126.00       522.68
  131.03        2983.00           1676         122.00       505.24
  131.06        2983.25           1679         115.00       474.72
  131.09        2983.50           1682         133.00       553.19
  131.11        2983.75           1686         132.00       548.83
  131.14        2984.00           1689         111.00       457.29
HS scan finished at 02:11:20
end
************************************************************
  HS Scan of (1) Internal mercury lamp
************************************************************
Integration time is 0.2294 seconds per sample
dh220619El Arenosillo 37.1 6.73 2.965129pr1000
************************************************************
Dead Time -------------------------  3.1E-08 
Number of Cycles Used -------------  4 
Starting Wavelength (Angstroms) ---  2950 
Final Wavelength (Angstoms) -------  2984 
Wavelength Increment (Angstroms) --  .25 
Filter Wheel #1 Position ---------- (1) Ground quartz diffuser (ND=2.32)
Filter Wheel #2 Position ---------- (1) Neutral Density 0.494



************************************************************
HS scan start time = 21:39:55
Dark Count =  3.8 


Time (GMT)  Wavelength (Ang)  Step Number  Raw Counts  Counts/Second

 1300.27        2950.00           1237         151.00       641.69
 1300.34        2950.25           1240         150.00       637.33
 1300.36        2950.50           1244         142.00       602.45
 1300.39        2950.75           1247         128.00       541.42
 1300.42        2951.00           1250         137.00       580.66
 1300.45        2951.25           1254         139.00       589.37
 1300.48        2951.50           1257         145.00       615.53
 1300.50        2951.75           1260         147.00       624.25
 1300.53        2952.00           1264         149.00       632.97
 1300.56        2952.25           1267         134.00       567.58
 1300.59        2952.50           1270         135.00       571.94
 1300.61        2952.75           1273         143.00       606.81
 1300.64        2953.00           1277         142.00       602.45
 1300.67        2953.25           1280         143.00       606.81
 1300.70        2953.50           1283         145.00       615.53
 1300.73        2953.75           1287         144.00       611.17
 1300.75        2954.00           1290         149.00       632.97
 1300.78        2954.25           1293         141.00       598.09
 1300.81        2954.50           1297         148.00       628.61
 1300.84        2954.75           1300         144.00       611.17
 1300.87        2955.00           1303         150.00       637.33
 1300.89        2955.25           1307         140.00       593.73
 1300.92        2955.50           1310         151.00       641.69
 1300.95        2955.75           1313         147.00       624.25
 1300.98        2956.00           1317         160.00       680.92
 1301.01        2956.25           1320         158.00       672.20
 1301.03        2956.50           1323         140.00       593.73
 1301.06        2956.75           1326         153.00       650.41
 1301.09        2957.00           1330         165.00       702.72
 1301.12        2957.25           1333         169.00       720.16
 1301.15        2957.50           1336         162.00       689.64
 1301.17        2957.75           1340         175.00       746.31
 1301.20        2958.00           1343         176.00       750.67
 1301.23        2958.25           1346         185.00       789.91
 1301.26        2958.50           1350         189.00       807.34
 1301.28        2958.75           1353         209.00       894.53
 1301.31        2959.00           1356         264.00      1134.30
 1301.34        2959.25           1360         346.00      1491.79
 1301.37        2959.50           1363         477.00      2062.90
 1301.40        2959.75           1366         617.00      2673.28
 1301.42        2960.00           1370         760.00      3296.76
 1301.45        2960.25           1373         935.00      4059.80
 1301.48        2960.50           1376        1067.00      4635.36
 1301.51        2960.75           1380        1236.00      5372.30
 1301.54        2961.00           1383        1457.00      6336.03
 1301.56        2961.25           1386        1582.00      6881.15
 1301.59        2961.50           1390        1896.00      8250.59
 1301.62        2961.75           1393        3878.00     16897.25
 1301.65        2962.00           1396        7979.00     34803.01
 1301.68        2962.25           1399       13232.00     57767.71
 1301.70        2962.50           1403       20424.00     89262.36
 1301.73        2962.75           1406       25273.00    110531.50
 1301.76        2963.00           1409       30161.00    132000.30
 1301.79        2963.25           1413       36775.00    161095.40
 1301.82        2963.50           1416       42078.00    184461.60
 1301.84        2963.75           1419       46898.00    205729.00
 1301.87        2964.00           1423       53848.00    236444.30
 1301.90        2964.25           1426       58896.00    258790.60
 1301.93        2964.50           1429       64019.00    281500.80
 1301.95        2964.75           1433       69824.00    307273.10
 1301.98        2965.00           1436       74577.00    328405.80
 1302.01        2965.25           1439       79658.00    351027.60
 1302.04        2965.50           1443       86807.00    382910.70
 1302.07        2965.75           1446       92082.00    406477.00
 1302.09        2966.00           1449       96645.00    426890.20
 1302.12        2966.25           1453      102276.00    452117.30
 1302.15        2966.50           1456      106248.00    469936.00
 1302.18        2966.75           1459      109919.00    486421.90
 1302.21        2967.00           1463      111853.00    495114.10
 1302.23        2967.25           1466      112213.00    496732.60
 1302.26        2967.50           1469      112155.00    496471.90
 1302.29        2967.75           1473      112133.00    496372.90
 1302.32        2968.00           1476      110409.00    488623.70
 1302.35        2968.25           1479      107008.00    473347.60
 1302.37        2968.50           1483      101893.00    450400.20
 1302.40        2968.75           1486       97074.00    428810.80
 1302.43        2969.00           1489       92522.00    408444.20
 1302.46        2969.25           1493       85992.00    379272.80
 1302.49        2969.50           1496       81214.00    357961.60
 1302.51        2969.75           1499       76159.00    335445.80
 1302.54        2970.00           1502       71234.00    313539.30
 1302.57        2970.25           1506       65035.00    286008.50
 1302.60        2970.50           1509       60462.00    265729.20
 1302.63        2970.75           1512       56099.00    246405.10
 1302.65        2971.00           1516       49354.00    216576.50
 1302.68        2971.25           1519       44032.00    193079.90
 1302.71        2971.50           1522       38505.00    168714.50
 1302.74        2971.75           1526       31918.00    139724.20
 1302.77        2972.00           1529       27315.00    119496.80
 1302.79        2972.25           1532       22218.00     97128.10
 1302.82        2972.50           1536       15406.00     67281.43
 1302.85        2972.75           1539        9882.00     43118.63
 1302.88        2973.00           1542        4497.00     19598.65
 1302.91        2973.25           1546        1265.00      5498.76
 1302.93        2973.50           1549         589.00      2551.20
 1302.96        2973.75           1552         385.00      1661.81
 1302.99        2974.00           1556         286.00      1230.21
 1303.02        2974.25           1559         227.00       973.00
 1303.05        2974.50           1562         217.00       929.41
 1303.07        2974.75           1566         209.00       894.53
 1303.10        2975.00           1569         194.00       829.14
 1303.13        2975.25           1572         198.00       846.58
 1303.16        2975.50           1576         192.00       820.42
 1303.19        2975.75           1579         165.00       702.72
 1303.21        2976.00           1582         175.00       746.31
 1303.24        2976.25           1586         171.00       728.87
 1303.27        2976.50           1589         166.00       707.08
 1303.30        2976.75           1592         170.00       724.51
 1303.32        2977.00           1596         158.00       672.20
 1303.35        2977.25           1599         155.00       659.12
 1303.38        2977.50           1602         158.00       672.20
 1303.41        2977.75           1606         149.00       632.97
 1303.44        2978.00           1609         146.00       619.89
 1303.46        2978.25           1612         152.00       646.05
 1303.49        2978.50           1616         155.00       659.12
 1303.52        2978.75           1619         127.00       537.06
 1303.55        2979.00           1622         137.00       580.66
 1303.58        2979.25           1626         123.00       519.62
 1303.60        2979.50           1629         136.00       576.30
 1303.63        2979.75           1632         138.00       585.01
 1303.66        2980.00           1636         149.00       632.97
 1303.69        2980.25           1639         136.00       576.30
 1303.71        2980.50           1642         128.00       541.42
 1303.74        2980.75           1646         140.00       593.73
 1303.77        2981.00           1649         133.00       563.22
 1303.80        2981.25           1652         128.00       541.42
 1303.83        2981.50           1656         133.00       563.22
 1303.85        2981.75           1659         132.00       558.86
 1303.88        2982.00           1662         135.00       571.94
 1303.91        2982.25           1666         130.00       550.14
 1303.94        2982.50           1669         133.00       563.22
 1303.96        2982.75           1672         121.00       510.91
 1303.99        2983.00           1676         134.00       567.58
 1304.02        2983.25           1679         129.00       545.78
 1304.05        2983.50           1682         134.00       567.58
 1304.08        2983.75           1686         124.00       523.98
 1304.10        2984.00           1689         124.00       523.98
HS scan finished at 21:44:17
end
