************************************************************
  HS Scan of (1) Internal mercury lamp
************************************************************
Integration time is 0.2294 seconds per sample
dh250619El Arenosillo 37.1 6.73 3.018777pr1000
************************************************************
Dead Time -------------------------  3.1E-08 
Number of Cycles Used -------------  4 
Starting Wavelength (Angstroms) ---  2950 
Final Wavelength (Angstoms) -------  2984 
Wavelength Increment (Angstroms) --  .25 
Filter Wheel #1 Position ---------- (1) Ground quartz diffuser (ND=2.32)
Filter Wheel #2 Position ---------- (1) Neutral Density 0.494



************************************************************
HS scan start time = 02:19:07
Dark Count =  4 


Time (GMT)  Wavelength (Ang)  Step Number  Raw Counts  Counts/Second

  139.48        2950.00           1237         144.00       610.30
  139.54        2950.25           1240         139.00       588.50
  139.57        2950.50           1244         139.00       588.50
  139.60        2950.75           1247         145.00       614.66
  139.63        2951.00           1250         149.00       632.10
  139.66        2951.25           1254         144.00       610.30
  139.68        2951.50           1257         133.00       562.35
  139.71        2951.75           1260         146.00       619.02
  139.74        2952.00           1264         138.00       584.14
  139.77        2952.25           1267         141.00       597.22
  139.80        2952.50           1270         152.00       645.17
  139.82        2952.75           1273         142.00       601.58
  139.85        2953.00           1277         141.00       597.22
  139.88        2953.25           1280         150.00       636.46
  139.91        2953.50           1283         133.00       562.35
  139.93        2953.75           1287         141.00       597.22
  139.96        2954.00           1290         137.00       579.78
  139.99        2954.25           1293         140.00       592.86
  140.02        2954.50           1297         149.00       632.10
  140.05        2954.75           1300         143.00       605.94
  140.07        2955.00           1303         149.00       632.10
  140.10        2955.25           1307         145.00       614.66
  140.13        2955.50           1310         139.00       588.50
  140.16        2955.75           1313         161.00       684.41
  140.19        2956.00           1317         154.00       653.89
  140.21        2956.25           1320         153.00       649.53
  140.24        2956.50           1323         153.00       649.53
  140.27        2956.75           1326         155.00       658.25
  140.30        2957.00           1330         167.00       710.56
  140.33        2957.25           1333         162.00       688.77
  140.35        2957.50           1336         168.00       714.92
  140.38        2957.75           1340         165.00       701.85
  140.41        2958.00           1343         180.00       767.24
  140.44        2958.25           1346         174.00       741.08
  140.46        2958.50           1350         179.00       762.88
  140.49        2958.75           1353         208.00       889.30
  140.52        2959.00           1356         252.00      1081.12
  140.55        2959.25           1360         349.00      1503.99
  140.58        2959.50           1363         511.00      2210.26
  140.60        2959.75           1366         619.00      2681.13
  140.63        2960.00           1370         813.00      3526.98
  140.66        2960.25           1373        1003.00      4355.43
  140.69        2960.50           1376        1120.00      4865.60
  140.71        2960.75           1380        1314.00      5711.56
  140.74        2961.00           1383        1489.00      6474.71
  140.77        2961.25           1386        1642.00      7141.95
  140.80        2961.50           1390        3168.00     13798.40
  140.83        2961.75           1393        6395.00     27883.73
  140.85        2962.00           1396       11113.00     48499.20
  140.88        2962.25           1399       15956.00     69688.32
  140.91        2962.50           1403       23124.00    101101.00
  140.94        2962.75           1406       28831.00    126155.00
  140.97        2963.00           1409       34650.00    151740.90
  140.99        2963.25           1413       41284.00    180960.00
  141.02        2963.50           1416       46493.00    203940.00
  141.05        2963.75           1419       51459.00    225878.70
  141.08        2964.00           1423       58083.00    255188.70
  141.11        2964.25           1426       62624.00    275312.70
  141.13        2964.50           1429       66911.00    294334.30
  141.16        2964.75           1433       73888.00    325339.80
  141.19        2965.00           1436       79224.00    349093.20
  141.22        2965.25           1439       84212.00    371329.30
  141.25        2965.50           1443       90577.00    399748.90
  141.27        2965.75           1446       94565.00    417580.90
  141.30        2966.00           1449       99794.00    440992.10
  141.33        2966.25           1453      106244.00    469917.10
  141.36        2966.50           1456      109725.00    485549.40
  141.39        2966.75           1459      111171.00    492047.50
  141.41        2967.00           1463      111625.00    494088.20
  141.44        2967.25           1466      111521.00    493620.70
  141.47        2967.50           1469      111603.00    493989.30
  141.50        2967.75           1473      110086.00    487171.40
  141.53        2968.00           1476      106373.00    470496.20
  141.55        2968.25           1479      102132.00    451470.80
  141.58        2968.50           1483       95158.00    420234.10
  141.61        2968.75           1486       89890.00    396679.00
  141.64        2969.00           1489       85167.00    375590.10
  141.67        2969.25           1493       78950.00    347872.60
  141.69        2969.50           1496       73439.00    323342.60
  141.72        2969.75           1499       67945.00    298925.50
  141.75        2970.00           1502       62796.00    276075.50
  141.78        2970.25           1506       55925.00    245634.00
  141.81        2970.50           1509       51119.00    224375.70
  141.83        2970.75           1512       46017.00    201838.70
  141.86        2971.00           1516       39118.00    171414.10
  141.89        2971.25           1519       34740.00    152136.90
  141.92        2971.50           1522       30322.00    132707.00
  141.95        2971.75           1526       23876.00    104400.10
  141.97        2972.00           1529       18489.00     80781.81
  142.00        2972.25           1532       13262.00     57898.07
  142.03        2972.50           1536        6920.00     30176.43
  142.06        2972.75           1539        2930.00     12760.06
  142.09        2973.00           1542        1201.00      5218.80
  142.11        2973.25           1546         668.00      2894.77
  142.14        2973.50           1549         469.00      2027.15
  142.17        2973.75           1552         351.00      1512.71
  142.20        2974.00           1556         258.00      1107.27
  142.23        2974.25           1559         228.00       976.49
  142.25        2974.50           1562         201.00       858.78
  142.28        2974.75           1566         194.00       828.27
  142.31        2975.00           1569         198.00       845.71
  142.34        2975.25           1572         188.00       802.11
  142.37        2975.50           1576         177.00       754.16
  142.39        2975.75           1579         169.00       719.28
  142.42        2976.00           1582         170.00       723.64
  142.45        2976.25           1586         160.00       680.05
  142.48        2976.50           1589         167.00       710.56
  142.51        2976.75           1592         149.00       632.10
  142.53        2977.00           1596         158.00       671.33
  142.56        2977.25           1599         150.00       636.46
  142.59        2977.50           1602         145.00       614.66
  142.62        2977.75           1606         151.00       640.81
  142.64        2978.00           1609         135.00       571.07
  142.67        2978.25           1612         134.00       566.71
  142.70        2978.50           1616         141.00       597.22
  142.73        2978.75           1619         141.00       597.22
  142.76        2979.00           1622         138.00       584.14
  142.78        2979.25           1626         132.00       557.99
  142.81        2979.50           1629         136.00       575.42
  142.84        2979.75           1632         146.00       619.02
  142.87        2980.00           1636         136.00       575.42
  142.89        2980.25           1639         132.00       557.99
  142.92        2980.50           1642         127.00       536.19
  142.95        2980.75           1646         127.00       536.19
  142.98        2981.00           1649         121.00       510.03
  143.01        2981.25           1652         123.00       518.75
  143.03        2981.50           1656         131.00       553.63
  143.06        2981.75           1659         128.00       540.55
  143.09        2982.00           1662         122.00       514.39
  143.12        2982.25           1666         123.00       518.75
  143.15        2982.50           1669         131.00       553.63
  143.17        2982.75           1672         119.00       501.32
  143.20        2983.00           1676         116.00       488.24
  143.23        2983.25           1679         135.00       571.07
  143.26        2983.50           1682         125.00       527.47
  143.28        2983.75           1686         124.00       523.11
  143.31        2984.00           1689         124.00       523.11
HS scan finished at 02:23:30
end
