************************************************************
  HS Scan of (1) Internal mercury lamp
************************************************************
Integration time is 0.2294 seconds per sample
dh240619El Arenosillo 37.1 6.73 2.965129pr1000
************************************************************
Dead Time -------------------------  3.1E-08 
Number of Cycles Used -------------  4 
Starting Wavelength (Angstroms) ---  2950 
Final Wavelength (Angstoms) -------  2984 
Wavelength Increment (Angstroms) --  .25 
Filter Wheel #1 Position ---------- (1) Ground quartz diffuser (ND=2.32)
Filter Wheel #2 Position ---------- (1) Neutral Density 0.494



************************************************************
HS scan start time = 02:02:51
Dark Count =  3.3 


Time (GMT)  Wavelength (Ang)  Step Number  Raw Counts  Counts/Second

  123.21        2950.00           1237         142.00       604.63
  123.28        2950.25           1240         147.00       626.43
  123.31        2950.50           1244         138.00       587.19
  123.33        2950.75           1247         136.00       578.48
  123.36        2951.00           1250         143.00       608.99
  123.39        2951.25           1254         148.00       630.79
  123.42        2951.50           1257         147.00       626.43
  123.45        2951.75           1260         155.00       661.30
  123.47        2952.00           1264         143.00       608.99
  123.50        2952.25           1267         147.00       626.43
  123.53        2952.50           1270         138.00       587.19
  123.56        2952.75           1273         140.00       595.91
  123.58        2953.00           1277         141.00       600.27
  123.61        2953.25           1280         131.00       556.68
  123.64        2953.50           1283         151.00       643.87
  123.67        2953.75           1287         143.00       608.99
  123.70        2954.00           1290         146.00       622.07
  123.72        2954.25           1293         136.00       578.48
  123.75        2954.50           1297         143.00       608.99
  123.78        2954.75           1300         145.00       617.71
  123.81        2955.00           1303         144.00       613.35
  123.83        2955.25           1307         148.00       630.79
  123.86        2955.50           1310         144.00       613.35
  123.89        2955.75           1313         159.00       678.74
  123.92        2956.00           1317         151.00       643.87
  123.95        2956.25           1320         156.00       665.66
  123.97        2956.50           1323         163.00       696.18
  124.00        2956.75           1326         166.00       709.26
  124.03        2957.00           1330         160.00       683.10
  124.06        2957.25           1333         166.00       709.26
  124.09        2957.50           1336         170.00       726.69
  124.11        2957.75           1340         168.00       717.98
  124.14        2958.00           1343         174.00       744.13
  124.17        2958.25           1346         179.00       765.93
  124.20        2958.50           1350         198.00       848.76
  124.22        2958.75           1353         214.00       918.51
  124.25        2959.00           1356         247.00      1062.37
  124.28        2959.25           1360         346.00      1493.97
  124.31        2959.50           1363         503.00      2178.44
  124.34        2959.75           1366         653.00      2832.42
  124.36        2960.00           1370         762.00      3307.66
  124.39        2960.25           1373         913.00      3966.05
  124.42        2960.50           1376        1082.00      4702.95
  124.45        2960.75           1380        1244.00      5409.36
  124.47        2961.00           1383        1451.00      6312.05
  124.50        2961.25           1386        1607.00      6992.36
  124.53        2961.50           1390        2661.00     11589.60
  124.56        2961.75           1393        6208.00     27070.22
  124.58        2962.00           1396       11386.00     49695.95
  124.61        2962.25           1399       16361.00     71464.60
  124.64        2962.50           1403       22162.00     96884.71
  124.67        2962.75           1406       26925.00    117786.30
  124.70        2963.00           1409       32438.00    142013.10
  124.72        2963.25           1413       39707.00    174012.50
  124.75        2963.50           1416       45222.00    198332.90
  124.78        2963.75           1419       50131.00    220012.00
  124.81        2964.00           1423       57274.00    251609.20
  124.84        2964.25           1426       62000.00    272549.00
  124.86        2964.50           1429       66182.00    291101.20
  124.89        2964.75           1433       72889.00    320899.70
  124.92        2965.00           1436       78248.00    344749.00
  124.95        2965.25           1439       83609.00    368642.60
  124.98        2965.50           1443       90437.00    399126.30
  125.00        2965.75           1446       94775.00    418523.60
  125.03        2966.00           1449       99450.00    439454.00
  125.06        2966.25           1453      105642.00    467218.40
  125.09        2966.50           1456      109340.00    483822.80
  125.12        2966.75           1459      111338.00    492801.30
  125.14        2967.00           1463      112001.00    495781.70
  125.17        2967.25           1466      111843.00    495071.40
  125.20        2967.50           1469      111883.00    495251.20
  125.23        2967.75           1473      110479.00    488940.60
  125.26        2968.00           1476      107652.00    476241.40
  125.28        2968.25           1479      104077.00    460196.50
  125.31        2968.50           1483       97256.00    429627.90
  125.34        2968.75           1486       92371.00    407771.30
  125.37        2969.00           1489       87892.00    387757.40
  125.40        2969.25           1493       81201.00    357906.00
  125.42        2969.50           1496       76159.00    335448.00
  125.45        2969.75           1499       71007.00    312532.50
  125.48        2970.00           1502       65695.00    288939.70
  125.51        2970.25           1506       58530.00    257171.60
  125.53        2970.50           1509       53235.00    233735.00
  125.56        2970.75           1512       47583.00    208755.90
  125.59        2971.00           1516       40109.00    175784.00
  125.62        2971.25           1519       35184.00    154094.00
  125.65        2971.50           1522       30796.00    134793.60
  125.68        2971.75           1526       24558.00    107395.70
  125.70        2972.00           1529       19341.00     84518.01
  125.73        2972.25           1532       14381.00     62797.37
  125.76        2972.50           1536        7526.00     32826.33
  125.79        2972.75           1539        3441.00     14992.58
  125.82        2973.00           1542        1492.00      6490.84
  125.84        2973.25           1546         761.00      3303.30
  125.87        2973.50           1549         510.00      2208.96
  125.90        2973.75           1552         379.00      1637.83
  125.93        2974.00           1556         286.00      1232.39
  125.96        2974.25           1559         223.00       957.74
  125.98        2974.50           1562         216.00       927.23
  126.01        2974.75           1566         194.00       831.32
  126.04        2975.00           1569         197.00       844.40
  126.07        2975.25           1572         185.00       792.09
  126.10        2975.50           1576         177.00       757.21
  126.12        2975.75           1579         165.00       704.90
  126.15        2976.00           1582         170.00       726.69
  126.18        2976.25           1586         157.00       670.02
  126.21        2976.50           1589         160.00       683.10
  126.24        2976.75           1592         159.00       678.74
  126.26        2977.00           1596         164.00       700.54
  126.29        2977.25           1599         148.00       630.79
  126.32        2977.50           1602         146.00       622.07
  126.35        2977.75           1606         141.00       600.27
  126.38        2978.00           1609         143.00       608.99
  126.40        2978.25           1612         140.00       595.91
  126.43        2978.50           1616         140.00       595.91
  126.46        2978.75           1619         134.00       569.76
  126.49        2979.00           1622         134.00       569.76
  126.51        2979.25           1626         129.00       547.96
  126.54        2979.50           1629         157.00       670.02
  126.57        2979.75           1632         136.00       578.48
  126.60        2980.00           1636         135.00       574.12
  126.63        2980.25           1639         126.00       534.88
  126.65        2980.50           1642         132.00       561.04
  126.68        2980.75           1646         131.00       556.68
  126.71        2981.00           1649         126.00       534.88
  126.74        2981.25           1652         125.00       530.52
  126.77        2981.50           1656         129.00       547.96
  126.79        2981.75           1659         135.00       574.12
  126.82        2982.00           1662         137.00       582.84
  126.85        2982.25           1666         123.00       521.80
  126.88        2982.50           1669         137.00       582.84
  126.91        2982.75           1672         139.00       591.55
  126.93        2983.00           1676         122.00       517.45
  126.96        2983.25           1679         115.00       486.93
  126.99        2983.50           1682         129.00       547.96
  127.02        2983.75           1686         132.00       561.04
  127.04        2984.00           1689         139.00       591.55
HS scan finished at 02:07:14
end
************************************************************
  HS Scan of (1) Internal mercury lamp
************************************************************
Integration time is 0.2294 seconds per sample
dh240619El Arenosillo 37.1 6.73 3.072425pr1000
************************************************************
Dead Time -------------------------  3.1E-08 
Number of Cycles Used -------------  4 
Starting Wavelength (Angstroms) ---  2950 
Final Wavelength (Angstoms) -------  2984 
Wavelength Increment (Angstroms) --  .25 
Filter Wheel #1 Position ---------- (1) Ground quartz diffuser (ND=2.32)
Filter Wheel #2 Position ---------- (1) Neutral Density 0.494



************************************************************
HS scan start time = 20:53:38
Dark Count =  2.9 


Time (GMT)  Wavelength (Ang)  Step Number  Raw Counts  Counts/Second

 1253.99        2950.00           1237         140.00       597.66
 1254.05        2950.25           1240         134.00       571.50
 1254.08        2950.50           1244         133.00       567.14
 1254.11        2950.75           1247         135.00       575.86
 1254.13        2951.00           1250         142.00       606.38
 1254.16        2951.25           1254         152.00       649.97
 1254.19        2951.50           1257         133.00       567.14
 1254.22        2951.75           1260         134.00       571.50
 1254.25        2952.00           1264         138.00       588.94
 1254.27        2952.25           1267         156.00       667.41
 1254.30        2952.50           1270         138.00       588.94
 1254.33        2952.75           1273         150.00       641.25
 1254.36        2953.00           1277         145.00       619.45
 1254.39        2953.25           1280         137.00       584.58
 1254.41        2953.50           1283         149.00       636.89
 1254.44        2953.75           1287         143.00       610.74
 1254.47        2954.00           1290         135.00       575.86
 1254.50        2954.25           1293         134.00       571.50
 1254.52        2954.50           1297         139.00       593.30
 1254.55        2954.75           1300         139.00       593.30
 1254.58        2955.00           1303         168.00       719.72
 1254.62        2955.25           1307         154.00       658.69
 1254.64        2955.50           1310         151.00       645.61
 1254.67        2955.75           1313         144.00       615.09
 1254.70        2956.00           1317         157.00       671.77
 1254.73        2956.25           1320         170.00       728.44
 1254.75        2956.50           1323         146.00       623.81
 1254.78        2956.75           1326         154.00       658.69
 1254.81        2957.00           1330         159.00       680.49
 1254.84        2957.25           1333         175.00       750.24
 1254.87        2957.50           1336         171.00       732.80
 1254.89        2957.75           1340         170.00       728.44
 1254.92        2958.00           1343         186.00       798.19
 1254.95        2958.25           1346         188.00       806.91
 1254.98        2958.50           1350         195.00       837.42
 1255.01        2958.75           1353         215.00       924.61
 1255.03        2959.00           1356         257.00      1107.71
 1255.06        2959.25           1360         344.00      1486.99
 1255.09        2959.50           1363         526.00      2280.46
 1255.12        2959.75           1366         632.00      2742.60
 1255.14        2960.00           1370         795.00      3453.29
 1255.17        2960.25           1373         986.00      4286.10
 1255.20        2960.50           1376        1133.00      4927.08
 1255.23        2960.75           1380        1258.00      5472.16
 1255.26        2961.00           1383        1497.00      6514.39
 1255.28        2961.25           1386        1626.00      7076.97
 1255.31        2961.50           1390        2655.00     11565.18
 1255.34        2961.75           1393        5280.00     23020.35
 1255.37        2962.00           1396        9563.00     41728.31
 1255.40        2962.25           1399       14879.00     64978.63
 1255.42        2962.50           1403       21888.00     95684.88
 1255.45        2962.75           1406       27021.00    118209.60
 1255.48        2963.00           1409       32693.00    143136.40
 1255.51        2963.25           1413       40282.00    176548.20
 1255.53        2963.50           1416       45377.00    199018.80
 1255.56        2963.75           1419       50594.00    222060.00
 1255.59        2964.00           1423       57625.00    253165.30
 1255.62        2964.25           1426       62325.00    273991.70
 1255.65        2964.50           1429       67694.00    297815.80
 1255.67        2964.75           1433       73570.00    323930.10
 1255.70        2965.00           1436       78319.00    345067.00
 1255.73        2965.25           1439       83891.00    369902.30
 1255.76        2965.50           1443       90546.00    399615.30
 1255.79        2965.75           1446       95789.00    423062.80
 1255.81        2966.00           1449      100466.00    444008.20
 1255.84        2966.25           1453      106518.00    471151.90
 1255.87        2966.50           1456      110482.00    488955.80
 1255.90        2966.75           1459      112627.00    498598.10
 1255.93        2967.00           1463      113146.00    500932.00
 1255.95        2967.25           1466      113181.00    501089.40
 1255.98        2967.50           1469      113100.00    500725.20
 1256.01        2967.75           1473      112096.00    496210.70
 1256.04        2968.00           1476      109713.00    485500.40
 1256.07        2968.25           1479      105589.00    466982.30
 1256.09        2968.50           1483       98291.00    434264.30
 1256.12        2968.75           1486       93242.00    411668.00
 1256.15        2969.00           1489       87473.00    385888.20
 1256.18        2969.25           1493       80469.00    354645.30
 1256.21        2969.50           1496       75099.00    330732.40
 1256.23        2969.75           1499       70102.00    308512.40
 1256.26        2970.00           1502       64554.00    283878.30
 1256.29        2970.25           1506       57896.00    254365.40
 1256.32        2970.50           1509       52879.00    232162.30
 1256.35        2970.75           1512       48156.00    211288.30
 1256.37        2971.00           1516       41669.00    182662.20
 1256.40        2971.25           1519       36182.00    158488.60
 1256.43        2971.50           1522       31081.00    136048.20
 1256.46        2971.75           1526       24940.00    109073.90
 1256.49        2972.00           1529       20192.00     88249.38
 1256.51        2972.25           1532       15089.00     65897.78
 1256.54        2972.50           1536        7798.00     34016.24
 1256.57        2972.75           1539        3549.00     15465.57
 1256.60        2973.00           1542        1513.00      6584.17
 1256.63        2973.25           1546         687.00      2982.40
 1256.66        2973.50           1549         472.00      2045.03
 1256.68        2973.75           1552         326.00      1408.52
 1256.71        2974.00           1556         259.00      1116.43
 1256.74        2974.25           1559         215.00       924.61
 1256.77        2974.50           1562         210.00       902.82
 1256.79        2974.75           1566         190.00       815.63
 1256.82        2975.00           1569         183.00       785.11
 1256.85        2975.25           1572         200.00       859.22
 1256.88        2975.50           1576         193.00       828.70
 1256.91        2975.75           1579         178.00       763.31
 1256.93        2976.00           1582         165.00       706.64
 1256.96        2976.25           1586         163.00       697.92
 1256.99        2976.50           1589         157.00       671.77
 1257.02        2976.75           1592         165.00       706.64
 1257.04        2977.00           1596         153.00       654.33
 1257.07        2977.25           1599         149.00       636.89
 1257.10        2977.50           1602         150.00       641.25
 1257.13        2977.75           1606         147.00       628.17
 1257.16        2978.00           1609         156.00       667.41
 1257.19        2978.25           1612         151.00       645.61
 1257.21        2978.50           1616         142.00       606.38
 1257.24        2978.75           1619         151.00       645.61
 1257.27        2979.00           1622         140.00       597.66
 1257.30        2979.25           1626         151.00       645.61
 1257.32        2979.50           1629         130.00       554.06
 1257.35        2979.75           1632         137.00       584.58
 1257.38        2980.00           1636         135.00       575.86
 1257.41        2980.25           1639         136.00       580.22
 1257.44        2980.50           1642         139.00       593.30
 1257.46        2980.75           1646         138.00       588.94
 1257.49        2981.00           1649         129.00       549.70
 1257.52        2981.25           1652         141.00       602.02
 1257.55        2981.50           1656         136.00       580.22
 1257.58        2981.75           1659         128.00       545.34
 1257.60        2982.00           1662         123.00       523.55
 1257.63        2982.25           1666         121.00       514.83
 1257.66        2982.50           1669         121.00       514.83
 1257.69        2982.75           1672         117.00       497.39
 1257.72        2983.00           1676         120.00       510.47
 1257.75        2983.25           1679         131.00       558.42
 1257.78        2983.50           1682         123.00       523.55
 1257.81        2983.75           1686         122.00       519.19
 1257.83        2984.00           1689         128.00       545.34
HS scan finished at 20:58:01
end
