************************************************************
  HS Scan of (1) Internal mercury lamp
************************************************************
Integration time is 0.2294 seconds per sample
dh200619El Arenosillo 37.1 6.73 2.911481pr1000
************************************************************
Dead Time -------------------------  3.1E-08 
Number of Cycles Used -------------  4 
Starting Wavelength (Angstroms) ---  2950 
Final Wavelength (Angstoms) -------  2984 
Wavelength Increment (Angstroms) --  .25 
Filter Wheel #1 Position ---------- (1) Ground quartz diffuser (ND=2.32)
Filter Wheel #2 Position ---------- (1) Neutral Density 0.494



************************************************************
HS scan start time = 02:10:56
Dark Count =  3.1 


Time (GMT)  Wavelength (Ang)  Step Number  Raw Counts  Counts/Second

  131.30        2950.00           1237         139.00       592.43
  131.36        2950.25           1240         137.00       583.71
  131.39        2950.50           1244         139.00       592.43
  131.42        2950.75           1247         145.00       618.58
  131.44        2951.00           1250         138.00       588.07
  131.47        2951.25           1254         133.00       566.27
  131.50        2951.50           1257         144.00       614.22
  131.53        2951.75           1260         151.00       644.74
  131.56        2952.00           1264         142.00       605.50
  131.59        2952.25           1267         129.00       548.83
  131.61        2952.50           1270         141.00       601.14
  131.64        2952.75           1273         145.00       618.58
  131.67        2953.00           1277         149.00       636.02
  131.70        2953.25           1280         139.00       592.43
  131.72        2953.50           1283         136.00       579.35
  131.75        2953.75           1287         140.00       596.79
  131.78        2954.00           1290         146.00       622.94
  131.81        2954.25           1293         146.00       622.94
  131.84        2954.50           1297         151.00       644.74
  131.86        2954.75           1300         148.00       631.66
  131.89        2955.00           1303         149.00       636.02
  131.92        2955.25           1307         143.00       609.86
  131.95        2955.50           1310         137.00       583.71
  131.97        2955.75           1313         150.00       640.38
  132.00        2956.00           1317         150.00       640.38
  132.03        2956.25           1320         153.00       653.46
  132.06        2956.50           1323         158.00       675.25
  132.09        2956.75           1326         156.00       666.54
  132.11        2957.00           1330         154.00       657.82
  132.14        2957.25           1333         162.00       692.69
  132.17        2957.50           1336         171.00       731.93
  132.20        2957.75           1340         157.00       670.89
  132.23        2958.00           1343         183.00       784.24
  132.25        2958.25           1346         179.00       766.80
  132.28        2958.50           1350         178.00       762.44
  132.31        2958.75           1353         196.00       840.91
  132.34        2959.00           1356         265.00      1141.71
  132.37        2959.25           1360         356.00      1538.43
  132.39        2959.50           1363         484.00      2096.47
  132.42        2959.75           1366         646.00      2802.77
  132.45        2960.00           1370         766.00      3325.98
  132.48        2960.25           1373         939.00      4080.29
  132.51        2960.50           1376        1088.00      4729.99
  132.53        2960.75           1380        1254.00      5453.84
  132.56        2961.00           1383        1437.00      6251.87
  132.59        2961.25           1386        1588.00      6910.37
  132.62        2961.50           1390        1770.00      7704.11
  132.64        2961.75           1393        2458.00     10704.95
  132.67        2962.00           1396        4967.00     21653.15
  132.70        2962.25           1399        9233.00     40285.25
  132.73        2962.50           1403       16218.00     70839.36
  132.76        2962.75           1406       21514.00     94044.06
  132.79        2963.00           1409       27302.00    119442.80
  132.81        2963.25           1413       34388.00    150592.00
  132.84        2963.50           1416       40281.00    176542.90
  132.87        2963.75           1419       45887.00    201268.90
  132.90        2964.00           1423       52089.00    228668.00
  132.93        2964.25           1426       56920.00    250042.70
  132.95        2964.50           1429       61954.00    272345.90
  132.98        2964.75           1433       68320.00    300595.00
  133.01        2965.00           1436       72705.00    320082.30
  133.04        2965.25           1439       77912.00    343253.50
  133.07        2965.50           1443       84644.00    373260.60
  133.09        2965.75           1446       89296.00    394029.20
  133.12        2966.00           1449       93109.00    411072.20
  133.15        2966.25           1453       99384.00    439159.20
  133.18        2966.50           1456      103736.00    458667.80
  133.21        2966.75           1459      107401.00    475115.20
  133.23        2967.00           1463      109396.00    484075.30
  133.26        2967.25           1466      109785.00    485823.00
  133.29        2967.50           1469      109611.00    485041.20
  133.32        2967.75           1473      109703.00    485454.60
  133.35        2968.00           1476      108909.00    481887.60
  133.37        2968.25           1479      106016.00    468897.80
  133.40        2968.50           1483      100981.00    446315.20
  133.43        2968.75           1486       96599.00    426687.50
  133.46        2969.00           1489       91100.00    402090.30
  133.49        2969.25           1493       84498.00    372609.20
  133.51        2969.50           1496       78951.00    347881.00
  133.54        2969.75           1499       74087.00    326229.00
  133.57        2970.00           1502       68720.00    302371.60
  133.60        2970.25           1506       62281.00    273795.80
  133.63        2970.50           1509       57366.00    252017.50
  133.65        2970.75           1512       53073.00    233019.40
  133.68        2971.00           1516       46338.00    203259.70
  133.71        2971.25           1519       41677.00    182696.60
  133.74        2971.50           1522       37128.00    162652.90
  133.77        2971.75           1526       31088.00    136078.10
  133.79        2972.00           1529       26166.00    114454.60
  133.82        2972.25           1532       21325.00     93215.35
  133.85        2972.50           1536       15465.00     67542.77
  133.88        2972.75           1539       10409.00     45425.30
  133.91        2973.00           1542        5479.00     23888.21
  133.93        2973.25           1546        1552.00      6753.38
  133.96        2973.50           1549         624.00      2706.85
  133.99        2973.75           1552         398.00      1721.54
  134.02        2974.00           1556         298.00      1285.58
  134.04        2974.25           1559         227.00       976.05
  134.07        2974.50           1562         215.00       923.74
  134.10        2974.75           1566         197.00       845.27
  134.13        2975.00           1569         200.00       858.35
  134.16        2975.25           1572         184.00       788.60
  134.18        2975.50           1576         192.00       823.47
  134.21        2975.75           1579         183.00       784.24
  134.24        2976.00           1582         168.00       718.85
  134.27        2976.25           1586         178.00       762.44
  134.30        2976.50           1589         152.00       649.10
  134.32        2976.75           1592         158.00       675.25
  134.35        2977.00           1596         160.00       683.97
  134.38        2977.25           1599         157.00       670.89
  134.41        2977.50           1602         143.00       609.86
  134.43        2977.75           1606         144.00       614.22
  134.46        2978.00           1609         145.00       618.58
  134.49        2978.25           1612         152.00       649.10
  134.52        2978.50           1616         138.00       588.07
  134.55        2978.75           1619         146.00       622.94
  134.57        2979.00           1622         126.00       535.75
  134.60        2979.25           1626         152.00       649.10
  134.63        2979.50           1629         132.00       561.91
  134.66        2979.75           1632         134.00       570.63
  134.68        2980.00           1636         138.00       588.07
  134.71        2980.25           1639         127.00       540.11
  134.74        2980.50           1642         135.00       574.99
  134.77        2980.75           1646         124.00       527.04
  134.80        2981.00           1649         132.00       561.91
  134.82        2981.25           1652         128.00       544.47
  134.85        2981.50           1656         126.00       535.75
  134.88        2981.75           1659         124.00       527.04
  134.91        2982.00           1662         130.00       553.19
  134.94        2982.25           1666         118.00       500.88
  134.96        2982.50           1669         156.00       666.54
  134.99        2982.75           1672         112.00       474.72
  135.02        2983.00           1676         132.00       561.91
  135.05        2983.25           1679         131.00       557.55
  135.08        2983.50           1682         134.00       570.63
  135.10        2983.75           1686         133.00       566.27
  135.13        2984.00           1689         134.00       570.63
HS scan finished at 02:15:19
end
