************************************************************
  HS Scan of (1) Internal mercury lamp
************************************************************
Integration time is 0.2294 seconds per sample
dh230619El Arenosillo 37.1 6.73 2.857833pr1000
************************************************************
Dead Time -------------------------  3.1E-08 
Number of Cycles Used -------------  4 
Starting Wavelength (Angstroms) ---  2950 
Final Wavelength (Angstoms) -------  2984 
Wavelength Increment (Angstroms) --  .25 
Filter Wheel #1 Position ---------- (1) Ground quartz diffuser (ND=2.32)
Filter Wheel #2 Position ---------- (1) Neutral Density 0.494



************************************************************
HS scan start time = 01:12:54
Dark Count =  4.3 


Time (GMT)  Wavelength (Ang)  Step Number  Raw Counts  Counts/Second

   73.26        2950.00           1237         137.00       578.48
   73.33        2950.25           1240         130.00       547.96
   73.35        2950.50           1244         154.00       652.59
   73.38        2950.75           1247         145.00       613.35
   73.41        2951.00           1250         147.00       622.07
   73.44        2951.25           1254         153.00       648.23
   73.47        2951.50           1257         160.00       678.74
   73.49        2951.75           1260         144.00       608.99
   73.52        2952.00           1264         139.00       587.19
   73.55        2952.25           1267         155.00       656.94
   73.58        2952.50           1270         142.00       600.27
   73.60        2952.75           1273         131.00       552.32
   73.63        2953.00           1277         141.00       595.91
   73.66        2953.25           1280         131.00       552.32
   73.69        2953.50           1283         138.00       582.84
   73.72        2953.75           1287         138.00       582.84
   73.74        2954.00           1290         135.00       569.76
   73.77        2954.25           1293         138.00       582.84
   73.80        2954.50           1297         140.00       591.55
   73.83        2954.75           1300         152.00       643.87
   73.86        2955.00           1303         157.00       665.66
   73.88        2955.25           1307         143.00       604.63
   73.91        2955.50           1310         145.00       613.35
   73.94        2955.75           1313         158.00       670.02
   73.97        2956.00           1317         150.00       635.15
   73.99        2956.25           1320         152.00       643.87
   74.02        2956.50           1323         148.00       626.43
   74.05        2956.75           1326         153.00       648.23
   74.08        2957.00           1330         143.00       604.63
   74.11        2957.25           1333         169.00       717.98
   74.13        2957.50           1336         173.00       735.41
   74.16        2957.75           1340         159.00       674.38
   74.19        2958.00           1343         156.00       661.30
   74.22        2958.25           1346         169.00       717.98
   74.25        2958.50           1350         172.00       731.05
   74.27        2958.75           1353         200.00       853.12
   74.30        2959.00           1356         227.00       970.82
   74.33        2959.25           1360         273.00      1171.36
   74.36        2959.50           1363         414.00      1786.06
   74.38        2959.75           1366         518.00      2239.48
   74.41        2960.00           1370         631.00      2732.14
   74.44        2960.25           1373         832.00      3608.51
   74.47        2960.50           1376         955.00      4144.82
   74.50        2960.75           1380        1118.00      4855.57
   74.52        2961.00           1383        1266.00      5500.94
   74.55        2961.25           1386        1400.00      6085.28
   74.58        2961.50           1390        1582.00      6878.97
   74.61        2961.75           1393        2002.00      8710.72
   74.64        2962.00           1396        3871.00     16864.53
   74.66        2962.25           1399        7694.00     33555.81
   74.69        2962.50           1403       14530.00     63445.07
   74.72        2962.75           1406       19806.00     86551.46
   74.75        2963.00           1409       24977.00    109230.20
   74.77        2963.25           1413       31743.00    138952.50
   74.80        2963.50           1416       37180.00    162876.60
   74.83        2963.75           1419       42176.00    184891.50
   74.86        2964.00           1423       48818.00    214206.30
   74.89        2964.25           1426       54400.00    238884.20
   74.91        2964.50           1429       59717.00    262425.70
   74.94        2964.75           1433       66615.00    293018.90
   74.97        2965.00           1436       71305.00    313852.70
   75.00        2965.25           1439       75989.00    334686.90
   75.02        2965.50           1443       82628.00    364263.30
   75.05        2965.75           1446       87821.00    387435.90
   75.08        2966.00           1449       92731.00    409376.50
   75.11        2966.25           1453       99267.00    438629.70
   75.14        2966.50           1456      103809.00    458989.80
   75.16        2966.75           1459      107851.00    477130.50
   75.19        2967.00           1463      110048.00    486999.30
   75.22        2967.25           1466      111094.00    491700.00
   75.25        2967.50           1469      110780.00    490288.80
   75.28        2967.75           1473      111061.00    491551.70
   75.31        2968.00           1476      110748.00    490145.00
   75.33        2968.25           1479      109214.00    483252.30
   75.36        2968.50           1483      105531.00    466715.70
   75.39        2968.75           1486      101276.00    447632.20
   75.42        2969.00           1489       96497.00    426225.50
   75.45        2969.25           1493       89556.00    395185.40
   75.47        2969.50           1496       84352.00    371952.50
   75.50        2969.75           1499       79483.00    350245.70
   75.53        2970.00           1502       74636.00    328666.00
   75.56        2970.25           1506       68045.00    299368.30
   75.59        2970.50           1509       62695.00    275626.20
   75.61        2970.75           1512       57867.00    254230.70
   75.64        2971.00           1516       51707.00    226973.70
   75.67        2971.25           1519       46997.00    206163.90
   75.70        2971.50           1522       42575.00    186651.00
   75.72        2971.75           1526       36698.00    160754.20
   75.75        2972.00           1529       31727.00    138882.20
   75.78        2972.25           1532       27089.00    118502.10
   75.81        2972.50           1536       20776.00     90803.19
   75.84        2972.75           1539       15131.00     66075.49
   75.86        2973.00           1542        9322.00     40668.94
   75.89        2973.25           1546        2656.00     11563.43
   75.92        2973.50           1549         990.00      4297.43
   75.95        2973.75           1552         580.00      2509.79
   75.98        2974.00           1556         414.00      1786.06
   76.00        2974.25           1559         293.00      1258.55
   76.03        2974.50           1562         258.00      1105.97
   76.06        2974.75           1566         208.00       887.99
   76.09        2975.00           1569         205.00       874.91
   76.12        2975.25           1572         193.00       822.60
   76.14        2975.50           1576         187.00       796.45
   76.17        2975.75           1579         181.00       770.29
   76.20        2976.00           1582         192.00       818.24
   76.23        2976.25           1586         154.00       652.59
   76.26        2976.50           1589         167.00       709.26
   76.28        2976.75           1592         171.00       726.69
   76.31        2977.00           1596         164.00       696.18
   76.34        2977.25           1599         150.00       635.15
   76.37        2977.50           1602         160.00       678.74
   76.39        2977.75           1606         150.00       635.15
   76.42        2978.00           1609         145.00       613.35
   76.45        2978.25           1612         143.00       604.63
   76.48        2978.50           1616         164.00       696.18
   76.51        2978.75           1619         153.00       648.23
   76.53        2979.00           1622         144.00       608.99
   76.56        2979.25           1626         144.00       608.99
   76.59        2979.50           1629         139.00       587.19
   76.62        2979.75           1632         143.00       604.63
   76.65        2980.00           1636         124.00       521.80
   76.67        2980.25           1639         152.00       643.87
   76.70        2980.50           1642         152.00       643.87
   76.73        2980.75           1646         140.00       591.55
   76.76        2981.00           1649         136.00       574.12
   76.79        2981.25           1652         129.00       543.60
   76.82        2981.50           1656         139.00       587.19
   76.85        2981.75           1659         131.00       552.32
   76.88        2982.00           1662         124.00       521.80
   76.90        2982.25           1666         135.00       569.76
   76.93        2982.50           1669         118.00       495.65
   76.96        2982.75           1672         119.00       500.01
   76.99        2983.00           1676         139.00       587.19
   77.01        2983.25           1679         140.00       591.55
   77.04        2983.50           1682         121.00       508.73
   77.07        2983.75           1686         127.00       534.88
   77.10        2984.00           1689         124.00       521.80
HS scan finished at 01:17:16
end
