************************************************************
  HS Scan of (1) Internal mercury lamp
************************************************************
Integration time is 0.2294 seconds per sample
dh230619El Arenosillo 37.1 6.73 2.857833pr1000
************************************************************
Dead Time -------------------------  3.1E-08 
Number of Cycles Used -------------  4 
Starting Wavelength (Angstroms) ---  2950 
Final Wavelength (Angstoms) -------  2984 
Wavelength Increment (Angstroms) --  .25 
Filter Wheel #1 Position ---------- (1) Ground quartz diffuser (ND=2.32)
Filter Wheel #2 Position ---------- (1) Neutral Density 0.494



************************************************************
HS scan start time = 01:12:54
Dark Count =  4.3 


Time (GMT)  Wavelength (Ang)  Step Number  Raw Counts  Counts/Second

   73.26        2950.00           1237         137.00       578.48
   73.33        2950.25           1240         130.00       547.96
   73.35        2950.50           1244         154.00       652.59
   73.38        2950.75           1247         145.00       613.35
   73.41        2951.00           1250         147.00       622.07
   73.44        2951.25           1254         153.00       648.23
   73.47        2951.50           1257         160.00       678.74
   73.49        2951.75           1260         144.00       608.99
   73.52        2952.00           1264         139.00       587.19
   73.55        2952.25           1267         155.00       656.94
   73.58        2952.50           1270         142.00       600.27
   73.60        2952.75           1273         131.00       552.32
   73.63        2953.00           1277         141.00       595.91
   73.66        2953.25           1280         131.00       552.32
   73.69        2953.50           1283         138.00       582.84
   73.72        2953.75           1287         138.00       582.84
   73.74        2954.00           1290         135.00       569.76
   73.77        2954.25           1293         138.00       582.84
   73.80        2954.50           1297         140.00       591.55
   73.83        2954.75           1300         152.00       643.87
   73.86        2955.00           1303         157.00       665.66
   73.88        2955.25           1307         143.00       604.63
   73.91        2955.50           1310         145.00       613.35
   73.94        2955.75           1313         158.00       670.02
   73.97        2956.00           1317         150.00       635.15
   73.99        2956.25           1320         152.00       643.87
   74.02        2956.50           1323         148.00       626.43
   74.05        2956.75           1326         153.00       648.23
   74.08        2957.00           1330         143.00       604.63
   74.11        2957.25           1333         169.00       717.98
   74.13        2957.50           1336         173.00       735.41
   74.16        2957.75           1340         159.00       674.38
   74.19        2958.00           1343         156.00       661.30
   74.22        2958.25           1346         169.00       717.98
   74.25        2958.50           1350         172.00       731.05
   74.27        2958.75           1353         200.00       853.12
   74.30        2959.00           1356         227.00       970.82
   74.33        2959.25           1360         273.00      1171.36
   74.36        2959.50           1363         414.00      1786.06
   74.38        2959.75           1366         518.00      2239.48
   74.41        2960.00           1370         631.00      2732.14
   74.44        2960.25           1373         832.00      3608.51
   74.47        2960.50           1376         955.00      4144.82
   74.50        2960.75           1380        1118.00      4855.57
   74.52        2961.00           1383        1266.00      5500.94
   74.55        2961.25           1386        1400.00      6085.28
   74.58        2961.50           1390        1582.00      6878.97
   74.61        2961.75           1393        2002.00      8710.72
   74.64        2962.00           1396        3871.00     16864.53
   74.66        2962.25           1399        7694.00     33555.81
   74.69        2962.50           1403       14530.00     63445.07
   74.72        2962.75           1406       19806.00     86551.46
   74.75        2963.00           1409       24977.00    109230.20
   74.77        2963.25           1413       31743.00    138952.50
   74.80        2963.50           1416       37180.00    162876.60
   74.83        2963.75           1419       42176.00    184891.50
   74.86        2964.00           1423       48818.00    214206.30
   74.89        2964.25           1426       54400.00    238884.20
   74.91        2964.50           1429       59717.00    262425.70
   74.94        2964.75           1433       66615.00    293018.90
   74.97        2965.00           1436       71305.00    313852.70
   75.00        2965.25           1439       75989.00    334686.90
   75.02        2965.50           1443       82628.00    364263.30
   75.05        2965.75           1446       87821.00    387435.90
   75.08        2966.00           1449       92731.00    409376.50
   75.11        2966.25           1453       99267.00    438629.70
   75.14        2966.50           1456      103809.00    458989.80
   75.16        2966.75           1459      107851.00    477130.50
   75.19        2967.00           1463      110048.00    486999.30
   75.22        2967.25           1466      111094.00    491700.00
   75.25        2967.50           1469      110780.00    490288.80
   75.28        2967.75           1473      111061.00    491551.70
   75.31        2968.00           1476      110748.00    490145.00
   75.33        2968.25           1479      109214.00    483252.30
   75.36        2968.50           1483      105531.00    466715.70
   75.39        2968.75           1486      101276.00    447632.20
   75.42        2969.00           1489       96497.00    426225.50
   75.45        2969.25           1493       89556.00    395185.40
   75.47        2969.50           1496       84352.00    371952.50
   75.50        2969.75           1499       79483.00    350245.70
   75.53        2970.00           1502       74636.00    328666.00
   75.56        2970.25           1506       68045.00    299368.30
   75.59        2970.50           1509       62695.00    275626.20
   75.61        2970.75           1512       57867.00    254230.70
   75.64        2971.00           1516       51707.00    226973.70
   75.67        2971.25           1519       46997.00    206163.90
   75.70        2971.50           1522       42575.00    186651.00
   75.72        2971.75           1526       36698.00    160754.20
   75.75        2972.00           1529       31727.00    138882.20
   75.78        2972.25           1532       27089.00    118502.10
   75.81        2972.50           1536       20776.00     90803.19
   75.84        2972.75           1539       15131.00     66075.49
   75.86        2973.00           1542        9322.00     40668.94
   75.89        2973.25           1546        2656.00     11563.43
   75.92        2973.50           1549         990.00      4297.43
   75.95        2973.75           1552         580.00      2509.79
   75.98        2974.00           1556         414.00      1786.06
   76.00        2974.25           1559         293.00      1258.55
   76.03        2974.50           1562         258.00      1105.97
   76.06        2974.75           1566         208.00       887.99
   76.09        2975.00           1569         205.00       874.91
   76.12        2975.25           1572         193.00       822.60
   76.14        2975.50           1576         187.00       796.45
   76.17        2975.75           1579         181.00       770.29
   76.20        2976.00           1582         192.00       818.24
   76.23        2976.25           1586         154.00       652.59
   76.26        2976.50           1589         167.00       709.26
   76.28        2976.75           1592         171.00       726.69
   76.31        2977.00           1596         164.00       696.18
   76.34        2977.25           1599         150.00       635.15
   76.37        2977.50           1602         160.00       678.74
   76.39        2977.75           1606         150.00       635.15
   76.42        2978.00           1609         145.00       613.35
   76.45        2978.25           1612         143.00       604.63
   76.48        2978.50           1616         164.00       696.18
   76.51        2978.75           1619         153.00       648.23
   76.53        2979.00           1622         144.00       608.99
   76.56        2979.25           1626         144.00       608.99
   76.59        2979.50           1629         139.00       587.19
   76.62        2979.75           1632         143.00       604.63
   76.65        2980.00           1636         124.00       521.80
   76.67        2980.25           1639         152.00       643.87
   76.70        2980.50           1642         152.00       643.87
   76.73        2980.75           1646         140.00       591.55
   76.76        2981.00           1649         136.00       574.12
   76.79        2981.25           1652         129.00       543.60
   76.82        2981.50           1656         139.00       587.19
   76.85        2981.75           1659         131.00       552.32
   76.88        2982.00           1662         124.00       521.80
   76.90        2982.25           1666         135.00       569.76
   76.93        2982.50           1669         118.00       495.65
   76.96        2982.75           1672         119.00       500.01
   76.99        2983.00           1676         139.00       587.19
   77.01        2983.25           1679         140.00       591.55
   77.04        2983.50           1682         121.00       508.73
   77.07        2983.75           1686         127.00       534.88
   77.10        2984.00           1689         124.00       521.80
HS scan finished at 01:17:16
end
************************************************************
  HS Scan of (1) Internal mercury lamp
************************************************************
Integration time is 0.2294 seconds per sample
dh230619El Arenosillo 37.1 6.73 2.911481pr1000
************************************************************
Dead Time -------------------------  3.1E-08 
Number of Cycles Used -------------  4 
Starting Wavelength (Angstroms) ---  2950 
Final Wavelength (Angstoms) -------  2984 
Wavelength Increment (Angstroms) --  .25 
Filter Wheel #1 Position ---------- (1) Ground quartz diffuser (ND=2.32)
Filter Wheel #2 Position ---------- (1) Neutral Density 0.494



************************************************************
HS scan start time = 02:10:24
Dark Count =  2.2 


Time (GMT)  Wavelength (Ang)  Step Number  Raw Counts  Counts/Second

  130.76        2950.00           1237         136.00       583.27
  130.83        2950.25           1240         144.00       618.15
  130.86        2950.50           1244         135.00       578.91
  130.88        2950.75           1247         154.00       661.74
  130.91        2951.00           1250         157.00       674.82
  130.94        2951.25           1254         143.00       613.79
  130.97        2951.50           1257         155.00       666.10
  131.00        2951.75           1260         142.00       609.43
  131.02        2952.00           1264         145.00       622.51
  131.05        2952.25           1267         156.00       670.46
  131.08        2952.50           1270         144.00       618.15
  131.11        2952.75           1273         138.00       591.99
  131.14        2953.00           1277         151.00       648.66
  131.16        2953.25           1280         137.00       587.63
  131.19        2953.50           1283         140.00       600.71
  131.22        2953.75           1287         149.00       639.94
  131.25        2954.00           1290         149.00       639.94
  131.28        2954.25           1293         152.00       653.02
  131.30        2954.50           1297         144.00       618.15
  131.33        2954.75           1300         142.00       609.43
  131.36        2955.00           1303         147.00       631.22
  131.39        2955.25           1307         152.00       653.02
  131.41        2955.50           1310         147.00       631.22
  131.44        2955.75           1313         156.00       670.46
  131.47        2956.00           1317         160.00       687.90
  131.50        2956.25           1320         164.00       705.33
  131.53        2956.50           1323         151.00       648.66
  131.55        2956.75           1326         163.00       700.97
  131.58        2957.00           1330         169.00       727.13
  131.61        2957.25           1333         178.00       766.37
  131.64        2957.50           1336         179.00       770.72
  131.67        2957.75           1340         170.00       731.49
  131.69        2958.00           1343         162.00       696.61
  131.72        2958.25           1346         177.00       762.01
  131.75        2958.50           1350         192.00       827.40
  131.78        2958.75           1353         232.00      1001.77
  131.80        2959.00           1356         281.00      1215.39
  131.83        2959.25           1360         368.00      1594.67
  131.86        2959.50           1363         555.00      2409.94
  131.89        2959.75           1366         665.00      2889.54
  131.92        2960.00           1370         795.00      3456.34
  131.94        2960.25           1373        1012.00      4402.52
  131.97        2960.50           1376        1095.00      4764.44
  132.00        2960.75           1380        1277.00      5558.06
  132.03        2961.00           1383        1479.00      6438.95
  132.06        2961.25           1386        1622.00      7062.58
  132.08        2961.50           1390        2130.00      9278.17
  132.11        2961.75           1393        4882.00     21286.06
  132.14        2962.00           1396        9490.00     41412.33
  132.17        2962.25           1399       14885.00     65007.95
  132.20        2962.50           1403       21661.00     94692.56
  132.22        2962.75           1406       26492.00    115889.90
  132.25        2963.00           1409       31334.00    137163.50
  132.28        2963.25           1413       38050.00    166717.30
  132.31        2963.50           1416       43056.00    188781.60
  132.33        2963.75           1419       47887.00    210103.30
  132.36        2964.00           1423       55148.00    242203.20
  132.39        2964.25           1426       60411.00    265510.40
  132.42        2964.50           1429       64730.00    284662.30
  132.45        2964.75           1433       70869.00    311924.10
  132.47        2965.00           1436       75629.00    333094.00
  132.50        2965.25           1439       80726.00    355793.70
  132.53        2965.50           1443       87830.00    387485.40
  132.56        2965.75           1446       93288.00    411876.80
  132.59        2966.00           1449       97693.00    431589.50
  132.61        2966.25           1453      103796.00    458940.90
  132.64        2966.50           1456      107929.00    477490.20
  132.67        2966.75           1459      110127.00    487363.70
  132.70        2967.00           1463      110921.00    490931.90
  132.73        2967.25           1466      110953.00    491075.70
  132.75        2967.50           1469      110854.00    490630.80
  132.78        2967.75           1473      110118.00    487323.30
  132.81        2968.00           1476      107425.00    475227.00
  132.84        2968.25           1479      104078.00    460205.90
  132.87        2968.50           1483       97769.00    431929.70
  132.89        2968.75           1486       92582.00    408719.60
  132.92        2969.00           1489       87335.00    385275.10
  132.95        2969.25           1493       80461.00    354612.80
  132.98        2969.50           1496       75774.00    333739.30
  133.01        2969.75           1499       71080.00    312861.90
  133.03        2970.00           1502       66078.00    290644.40
  133.06        2970.25           1506       59742.00    262545.80
  133.09        2970.50           1509       54497.00    239322.60
  133.12        2970.75           1512       49054.00    215258.20
  133.15        2971.00           1516       41769.00    183106.20
  133.17        2971.25           1519       36704.00    160789.90
  133.20        2971.50           1522       31066.00    135985.30
  133.23        2971.75           1526       24307.00    106299.10
  133.26        2972.00           1529       19875.00     86863.06
  133.29        2972.25           1532       14628.00     63883.15
  133.31        2972.50           1536        7946.00     34665.83
  133.34        2972.75           1539        3785.00     16498.41
  133.37        2973.00           1542        1475.00      6421.51
  133.40        2973.25           1546         702.00      3050.86
  133.43        2973.50           1549         462.00      2004.48
  133.45        2973.75           1552         373.00      1616.47
  133.48        2974.00           1556         272.00      1176.15
  133.51        2974.25           1559         220.00       949.46
  133.54        2974.50           1562         209.00       901.51
  133.57        2974.75           1566         193.00       831.76
  133.59        2975.00           1569         197.00       849.19
  133.62        2975.25           1572         186.00       801.24
  133.65        2975.50           1576         186.00       801.24
  133.68        2975.75           1579         169.00       727.13
  133.71        2976.00           1582         174.00       748.93
  133.73        2976.25           1586         171.00       735.85
  133.76        2976.50           1589         168.00       722.77
  133.79        2976.75           1592         158.00       679.18
  133.82        2977.00           1596         160.00       687.90
  133.84        2977.25           1599         154.00       661.74
  133.87        2977.50           1602         165.00       709.69
  133.90        2977.75           1606         159.00       683.54
  133.93        2978.00           1609         149.00       639.94
  133.96        2978.25           1612         142.00       609.43
  133.98        2978.50           1616         146.00       626.86
  134.01        2978.75           1619         149.00       639.94
  134.04        2979.00           1622         141.00       605.07
  134.07        2979.25           1626         145.00       622.51
  134.10        2979.50           1629         144.00       618.15
  134.12        2979.75           1632         136.00       583.27
  134.15        2980.00           1636         134.00       574.55
  134.18        2980.25           1639         136.00       583.27
  134.21        2980.50           1642         133.00       570.19
  134.23        2980.75           1646         140.00       600.71
  134.26        2981.00           1649         141.00       605.07
  134.29        2981.25           1652         134.00       574.55
  134.32        2981.50           1656         119.00       509.16
  134.35        2981.75           1659         132.00       565.83
  134.37        2982.00           1662         136.00       583.27
  134.40        2982.25           1666         124.00       530.96
  134.43        2982.50           1669         127.00       544.04
  134.46        2982.75           1672         139.00       596.35
  134.49        2983.00           1676         117.00       500.44
  134.51        2983.25           1679         133.00       570.19
  134.54        2983.50           1682         134.00       574.55
  134.57        2983.75           1686         128.00       548.40
  134.60        2984.00           1689         134.00       574.55
HS scan finished at 02:14:47
end
