************************************************************
  HL Scan of (1) Internal mercury lamp
************************************************************
Integration time is 0.2294 seconds per sample
dh180619El Arenosillo 37.1 6.73 3.018777pr1000
************************************************************
Dead Time -------------------------  2.8E-08 
Number of Cycles Used -------------  4 
Starting Wavelength (Angstroms) ---  3331 
Final Wavelength (Angstoms) -------  3351 
Wavelength Increment (Angstroms) --  .25 
Filter Wheel #1 Position ---------- (1) Ground quartz diffuser (ND=2.32)
Filter Wheel #2 Position ---------- 



************************************************************
HL scan start time = 22:04:17
Dark Count =  3.6 


Time (GMT)  Wavelength (Ang)  Step Number  Raw Counts  Counts/Second

 1324.80        3331.00           6572          79.00       328.69
 1325.02        3331.25           6576          71.00       293.81
 1325.05        3331.50           6579          70.00       289.45
 1325.08        3331.75           6583          70.00       289.45
 1325.11        3332.00           6587          68.00       280.73
 1325.14        3332.25           6591          72.00       298.17
 1325.17        3332.50           6594          63.00       258.94
 1325.20        3332.75           6598          69.00       285.09
 1325.23        3333.00           6602          66.00       272.02
 1325.26        3333.25           6605          69.00       285.09
 1325.29        3333.50           6609          70.00       289.45
 1325.33        3333.75           6613          72.00       298.17
 1325.36        3334.00           6617          69.00       285.09
 1325.39        3334.25           6620          79.00       328.69
 1325.42        3334.50           6624          67.00       276.38
 1325.45        3334.75           6628          80.00       333.05
 1325.48        3335.00           6632          84.00       350.48
 1325.51        3335.25           6635          97.00       407.15
 1325.54        3335.50           6639         156.00       664.35
 1325.57        3335.75           6643         379.00      1636.52
 1325.60        3336.00           6646         705.00      3057.80
 1325.63        3336.25           6650        1379.00      5996.65
 1325.66        3336.50           6654        2258.00      9830.08
 1325.69        3336.75           6658        3481.00     15165.11
 1325.72        3337.00           6661        4748.00     20693.77
 1325.75        3337.25           6665        6382.00     27826.38
 1325.79        3337.50           6669        8181.00     35682.54
 1325.82        3337.75           6673        9908.00     43227.53
 1325.85        3338.00           6676       11252.00     49101.47
 1325.88        3338.25           6680       13167.00     57474.28
 1325.91        3338.50           6684       14871.00     64927.87
 1325.94        3338.75           6688       16764.00     73211.84
 1325.97        3339.00           6691       18106.00     79086.90
 1326.00        3339.25           6695       19776.00     86400.58
 1326.03        3339.50           6699       21561.00     94221.22
 1326.06        3339.75           6702       22811.00     99699.91
 1326.10        3340.00           6706       24606.00    107570.20
 1326.13        3340.25           6710       26417.00    115514.30
 1326.16        3340.50           6714       28353.00    124010.50
 1326.19        3340.75           6717       29345.00    128365.50
 1326.22        3341.00           6721       30764.00    134597.00
 1326.25        3341.25           6725       31686.00    138647.10
 1326.28        3341.50           6729       32139.00    140637.30
 1326.31        3341.75           6732       32207.00    140936.10
 1326.34        3342.00           6736       31486.00    137768.40
 1326.37        3342.25           6740       30683.00    134241.20
 1326.40        3342.50           6744       29369.00    128470.90
 1326.44        3342.75           6747       28334.00    123927.10
 1326.47        3343.00           6751       26520.00    115966.20
 1326.50        3343.25           6755       24891.00    108820.20
 1326.53        3343.50           6759       23142.00    101150.90
 1326.56        3343.75           6762       21719.00     94913.63
 1326.59        3344.00           6766       19718.00     86146.52
 1326.62        3344.25           6770       17862.00     78018.55
 1326.65        3344.50           6773       16357.00     71430.43
 1326.68        3344.75           6777       14334.00     62578.61
 1326.71        3345.00           6781       12399.00     54115.94
 1326.74        3345.25           6785       10469.00     45679.14
 1326.77        3345.50           6788        9024.00     39365.08
 1326.80        3345.75           6792        7284.00     31764.94
 1326.84        3346.00           6796        5525.00     24085.11
 1326.87        3346.25           6800        4047.00     17634.69
 1326.90        3346.50           6803        3021.00     13158.29
 1326.93        3346.75           6807        1867.00      8124.78
 1326.96        3347.00           6811        1041.00      4522.80
 1326.99        3347.25           6815         552.00      2390.74
 1327.02        3347.50           6818         346.00      1492.65
 1327.05        3347.75           6822         170.00       725.39
 1327.08        3348.00           6826         124.00       524.86
 1327.11        3348.25           6830          83.00       346.12
 1327.14        3348.50           6833          75.00       311.25
 1327.17        3348.75           6837          69.00       285.09
 1327.20        3349.00           6841          64.00       263.30
 1327.23        3349.25           6845          66.00       272.02
 1327.27        3349.50           6848          67.00       276.38
 1327.30        3349.75           6852          75.00       311.25
 1327.32        3350.00           6856          74.00       306.89
 1327.36        3350.25           6860          67.00       276.38
 1327.39        3350.50           6863          70.00       289.45
 1327.42        3350.75           6867          64.00       263.30
 1327.45        3351.00           6871          65.00       267.66
HL scan finished at 22:08:05
end
