************************************************************
  HL Scan of (1) Internal mercury lamp
************************************************************
Integration time is 0.2294 seconds per sample
dh270619El Arenosillo 37.1 6.73 3.018777pr1000
************************************************************
Dead Time -------------------------  2.8E-08 
Number of Cycles Used -------------  4 
Starting Wavelength (Angstroms) ---  3331 
Final Wavelength (Angstoms) -------  3351 
Wavelength Increment (Angstroms) --  .25 
Filter Wheel #1 Position ---------- (1) Ground quartz diffuser (ND=2.32)
Filter Wheel #2 Position ---------- 



************************************************************
HL scan start time = 03:48:29
Dark Count =  7.7 


Time (GMT)  Wavelength (Ang)  Step Number  Raw Counts  Counts/Second

  228.99        3331.00           6572          73.00       284.66
  229.22        3331.25           6576          64.00       245.42
  229.25        3331.50           6579          68.00       262.86
  229.28        3331.75           6583          75.00       293.38
  229.31        3332.00           6587          71.00       275.94
  229.34        3332.25           6591          76.00       297.74
  229.37        3332.50           6594          61.00       232.35
  229.40        3332.75           6598          67.00       258.50
  229.43        3333.00           6602          70.00       271.58
  229.46        3333.25           6605          73.00       284.66
  229.49        3333.50           6609          69.00       267.22
  229.52        3333.75           6613          68.00       262.86
  229.55        3334.00           6617          72.00       280.30
  229.58        3334.25           6620          78.00       306.45
  229.61        3334.50           6624          75.00       293.38
  229.64        3334.75           6628          78.00       306.45
  229.67        3335.00           6632          99.00       398.00
  229.70        3335.25           6635          93.00       371.84
  229.73        3335.50           6639         201.00       842.65
  229.76        3335.75           6643         554.00      2381.59
  229.79        3336.00           6646         933.00      4034.02
  229.82        3336.25           6650        1762.00      7648.98
  229.85        3336.50           6654        2815.00     12241.77
  229.88        3336.75           6658        4122.00     17944.06
  229.91        3337.00           6661        5193.00     22618.07
  229.94        3337.25           6665        6942.00     30253.60
  229.98        3337.50           6669        8794.00     38342.37
  230.01        3337.75           6673       10707.00     46701.40
  230.04        3338.00           6676       12187.00     53171.08
  230.07        3338.25           6680       14159.00     61795.15
  230.10        3338.50           6684       16232.00     70865.41
  230.13        3338.75           6688       18112.00     79095.21
  230.16        3339.00           6691       19465.00     85020.38
  230.19        3339.25           6695       21157.00     92432.91
  230.22        3339.50           6699       23066.00    100799.80
  230.25        3339.75           6702       24532.00    107227.70
  230.28        3340.00           6706       26651.00    116523.00
  230.32        3340.25           6710       28728.00    125638.70
  230.35        3340.50           6714       30339.00    132712.40
  230.38        3340.75           6717       31431.00    137508.80
  230.41        3341.00           6721       32752.00    143312.80
  230.44        3341.25           6725       33777.00    147817.60
  230.47        3341.50           6729       34079.00    149145.10
  230.50        3341.75           6732       33878.00    148261.60
  230.53        3342.00           6736       33253.00    145514.50
  230.56        3342.25           6740       32164.00    140729.10
  230.59        3342.50           6744       30855.00    134978.70
  230.62        3342.75           6747       29787.00    130288.30
  230.65        3343.00           6751       27894.00    121977.80
  230.68        3343.25           6755       26016.00    113737.00
  230.71        3343.50           6759       24225.00    105881.40
  230.74        3343.75           6762       22561.00     98586.07
  230.77        3344.00           6766       20468.00     89414.08
  230.81        3344.25           6770       18379.00     80264.33
  230.84        3344.50           6773       16619.00     72559.22
  230.87        3344.75           6777       14359.00     62670.03
  230.90        3345.00           6781       12459.00     54360.36
  230.93        3345.25           6785       10443.00     45547.59
  230.96        3345.50           6788        9014.00     39303.48
  230.99        3345.75           6792        6980.00     30419.53
  231.02        3346.00           6796        5182.00     22570.06
  231.05        3346.25           6800        3701.00     16107.09
  231.08        3346.50           6803        2795.00     12154.53
  231.11        3346.75           6807        1768.00      7675.15
  231.14        3347.00           6811        1041.00      4504.93
  231.17        3347.25           6815         536.00      2303.11
  231.20        3347.50           6818         339.00      1444.26
  231.23        3347.75           6822         182.00       759.82
  231.27        3348.00           6826         108.00       437.23
  231.30        3348.25           6830         104.00       419.80
  231.33        3348.50           6833          76.00       297.74
  231.36        3348.75           6837          75.00       293.38
  231.39        3349.00           6841          90.00       358.77
  231.42        3349.25           6845          74.00       289.02
  231.45        3349.50           6848          79.00       310.81
  231.48        3349.75           6852          69.00       267.22
  231.51        3350.00           6856          76.00       297.74
  231.54        3350.25           6860          76.00       297.74
  231.57        3350.50           6863          82.00       323.89
  231.60        3350.75           6867          78.00       306.45
  231.63        3351.00           6871          80.00       315.17
HL scan finished at 03:52:17
end
