************************************************************
  HL Scan of (1) Internal mercury lamp
************************************************************
Integration time is 0.2294 seconds per sample
dh210619El Arenosillo 37.1 6.73 2.911481pr1000
************************************************************
Dead Time -------------------------  2.8E-08 
Number of Cycles Used -------------  4 
Starting Wavelength (Angstroms) ---  3331 
Final Wavelength (Angstoms) -------  3351 
Wavelength Increment (Angstroms) --  .25 
Filter Wheel #1 Position ---------- (1) Ground quartz diffuser (ND=2.32)
Filter Wheel #2 Position ---------- 



************************************************************
HL scan start time = 03:11:42
Dark Count =  6 


Time (GMT)  Wavelength (Ang)  Step Number  Raw Counts  Counts/Second

  192.22        3331.00           6572          69.00       274.63
  192.44        3331.25           6576          72.00       287.71
  192.47        3331.50           6579          69.00       274.63
  192.50        3331.75           6583          65.00       257.19
  192.53        3332.00           6587          70.00       278.99
  192.56        3332.25           6591          68.00       270.27
  192.59        3332.50           6594          65.00       257.19
  192.62        3332.75           6598          75.00       300.79
  192.65        3333.00           6602          68.00       270.27
  192.69        3333.25           6605          69.00       274.63
  192.72        3333.50           6609          65.00       257.19
  192.75        3333.75           6613          64.00       252.84
  192.78        3334.00           6617          68.00       270.27
  192.81        3334.25           6620          72.00       287.71
  192.84        3334.50           6624          71.00       283.35
  192.87        3334.75           6628          96.00       392.33
  192.90        3335.00           6632          85.00       344.38
  192.93        3335.25           6635         111.00       457.72
  192.96        3335.50           6639         190.00       802.11
  192.99        3335.75           6643         457.00      1966.11
  193.02        3336.00           6646         749.00      3239.18
  193.05        3336.25           6650        1415.00      6143.17
  193.08        3336.50           6654        2256.00      9810.89
  193.11        3336.75           6658        3315.00     14430.42
  193.14        3337.00           6661        4356.00     18972.59
  193.17        3337.25           6665        5905.00     25733.44
  193.20        3337.50           6669        7640.00     33309.17
  193.23        3337.75           6673        9275.00     40451.20
  193.26        3338.00           6676       10620.00     46328.59
  193.29        3338.25           6680       12365.00     53956.79
  193.32        3338.50           6684       14232.00     62121.91
  193.35        3338.75           6688       16125.00     70404.57
  193.38        3339.00           6691       17562.00     76694.60
  193.41        3339.25           6695       19217.00     83941.61
  193.45        3339.50           6699       20821.00     90968.12
  193.48        3339.75           6702       22137.00     96735.07
  193.51        3340.00           6706       23823.00    104126.20
  193.54        3340.25           6710       25417.00    111116.80
  193.57        3340.50           6714       26940.00    117798.50
  193.60        3340.75           6717       28011.00    122498.80
  193.63        3341.00           6721       28991.00    126800.80
  193.66        3341.25           6725       29781.00    130269.40
  193.69        3341.50           6729       30052.00    131459.50
  193.72        3341.75           6732       30100.00    131670.30
  193.75        3342.00           6736       29595.00    129452.70
  193.78        3342.25           6740       28961.00    126669.10
  193.81        3342.50           6744       27441.00    119997.10
  193.84        3342.75           6747       26661.00    116574.30
  193.87        3343.00           6751       25170.00    110033.40
  193.90        3343.25           6755       23437.00    102433.70
  193.93        3343.50           6759       21676.00     94714.68
  193.96        3343.75           6762       20238.00     88413.90
  193.99        3344.00           6766       18320.00     80013.41
  194.03        3344.25           6770       16360.00     71433.06
  194.06        3344.50           6773       14797.00     64593.62
  194.09        3344.75           6777       12984.00     56663.51
  194.12        3345.00           6781       11113.00     48483.39
  194.15        3345.25           6785        9302.00     40569.16
  194.18        3345.50           6788        8054.00     35117.34
  194.21        3345.75           6792        6464.00     28173.92
  194.24        3346.00           6796        4892.00     21311.76
  194.27        3346.25           6800        3727.00     16227.95
  194.30        3346.50           6803        2831.00     12318.98
  194.33        3346.75           6807        1761.00      7652.03
  194.36        3347.00           6811        1064.00      4612.63
  194.39        3347.25           6815         561.00      2419.52
  194.42        3347.50           6818         314.00      1342.68
  194.45        3347.75           6822         182.00       767.24
  194.48        3348.00           6826         104.00       427.21
  194.51        3348.25           6830          72.00       287.71
  194.55        3348.50           6833          82.00       331.30
  194.58        3348.75           6837          62.00       244.12
  194.61        3349.00           6841          69.00       274.63
  194.64        3349.25           6845          73.00       292.07
  194.67        3349.50           6848          72.00       287.71
  194.70        3349.75           6852          76.00       305.15
  194.73        3350.00           6856          65.00       257.19
  194.76        3350.25           6860          74.00       296.43
  194.79        3350.50           6863          69.00       274.63
  194.82        3350.75           6867          73.00       292.07
  194.85        3351.00           6871          61.00       239.76
HL scan finished at 03:15:29
end
