************************************************************
  HL Scan of (1) Internal mercury lamp
************************************************************
Integration time is 0.2294 seconds per sample
dh190619El Arenosillo 37.1 6.73 3.018777pr1000
************************************************************
Dead Time -------------------------  2.8E-08 
Number of Cycles Used -------------  4 
Starting Wavelength (Angstroms) ---  3331 
Final Wavelength (Angstoms) -------  3351 
Wavelength Increment (Angstroms) --  .25 
Filter Wheel #1 Position ---------- (1) Ground quartz diffuser (ND=2.32)
Filter Wheel #2 Position ---------- 



************************************************************
HL scan start time = 02:35:47
Dark Count =  6.1 


Time (GMT)  Wavelength (Ang)  Step Number  Raw Counts  Counts/Second

  156.30        3331.00           6572          65.00       256.76
  156.52        3331.25           6576          77.00       309.07
  156.55        3331.50           6579          67.00       265.48
  156.58        3331.75           6583          80.00       322.15
  156.61        3332.00           6587          63.00       248.04
  156.64        3332.25           6591          63.00       248.04
  156.67        3332.50           6594          68.00       269.84
  156.70        3332.75           6598          77.00       309.07
  156.73        3333.00           6602          75.00       300.35
  156.76        3333.25           6605          64.00       252.40
  156.79        3333.50           6609          62.00       243.68
  156.82        3333.75           6613          76.00       304.71
  156.85        3334.00           6617          63.00       248.04
  156.88        3334.25           6620          67.00       265.48
  156.91        3334.50           6624          68.00       269.84
  156.95        3334.75           6628          80.00       322.15
  156.98        3335.00           6632          82.00       330.87
  157.01        3335.25           6635         106.00       435.49
  157.04        3335.50           6639         182.00       766.80
  157.07        3335.75           6643         461.00      1983.11
  157.10        3336.00           6646         822.00      3557.02
  157.13        3336.25           6650        1534.00      6661.66
  157.16        3336.50           6654        2564.00     11153.88
  157.19        3336.75           6658        3973.00     17300.88
  157.22        3337.00           6661        5036.00     21939.81
  157.25        3337.25           6665        6741.00     29382.93
  157.28        3337.50           6669        8612.00     37554.29
  157.31        3337.75           6673       10658.00     46494.23
  157.34        3338.00           6676       12095.00     52775.84
  157.37        3338.25           6680       14155.00     61784.66
  157.40        3338.50           6684       16207.00     70763.00
  157.43        3338.75           6688       17742.00     77482.22
  157.46        3339.00           6691       19219.00     83949.93
  157.49        3339.25           6695       20875.00     91204.29
  157.52        3339.50           6699       22440.00     98062.71
  157.55        3339.75           6702       23868.00    104323.00
  157.58        3340.00           6706       25457.00    111291.80
  157.62        3340.25           6710       27137.00    118662.60
  157.64        3340.50           6714       28915.00    126466.70
  157.68        3340.75           6717       29870.00    130659.80
  157.70        3341.00           6721       31431.00    137515.90
  157.73        3341.25           6725       32061.00    140283.60
  157.77        3341.50           6729       32612.00    142704.70
  157.80        3341.75           6732       32400.00    141773.10
  157.83        3342.00           6736       31824.00    139242.40
  157.86        3342.25           6740       30754.00    134542.10
  157.89        3342.50           6744       29519.00    129118.50
  157.92        3342.75           6747       28336.00    123924.90
  157.95        3343.00           6751       26576.00    116200.90
  157.98        3343.25           6755       24874.00    108734.70
  158.01        3343.50           6759       23235.00    101547.70
  158.04        3343.75           6762       21537.00     94105.10
  158.07        3344.00           6766       19581.00     85535.49
  158.10        3344.25           6770       17576.00     76755.46
  158.13        3344.50           6773       16055.00     70097.79
  158.16        3344.75           6777       13994.00     61080.40
  158.20        3345.00           6781       12134.00     52946.35
  158.23        3345.25           6785       10247.00     44698.02
  158.26        3345.50           6788        8952.00     39039.61
  158.29        3345.75           6792        7243.00     31574.99
  158.32        3346.00           6796        5591.00     24362.30
  158.35        3346.25           6800        4021.00     17510.33
  158.38        3346.50           6803        2963.00     12894.37
  158.41        3346.75           6807        1802.00      7830.40
  158.44        3347.00           6811        1041.00      4511.90
  158.47        3347.25           6815         535.00      2305.73
  158.50        3347.50           6818         295.00      1259.42
  158.53        3347.75           6822         163.00       683.97
  158.56        3348.00           6826         109.00       448.57
  158.59        3348.25           6830          77.00       309.07
  158.62        3348.50           6833          70.00       278.55
  158.65        3348.75           6837          68.00       269.84
  158.68        3349.00           6841          65.00       256.76
  158.71        3349.25           6845          70.00       278.55
  158.75        3349.50           6848          74.00       295.99
  158.78        3349.75           6852          70.00       278.55
  158.81        3350.00           6856          72.00       287.27
  158.83        3350.25           6860          72.00       287.27
  158.87        3350.50           6863          77.00       309.07
  158.90        3350.75           6867          73.00       291.63
  158.93        3351.00           6871          69.00       274.20
HL scan finished at 02:39:34
end
************************************************************
  HL Scan of (1) Internal mercury lamp
************************************************************
Integration time is 0.2294 seconds per sample
dh190619El Arenosillo 37.1 6.73 2.965129pr1000
************************************************************
Dead Time -------------------------  2.8E-08 
Number of Cycles Used -------------  4 
Starting Wavelength (Angstroms) ---  3331 
Final Wavelength (Angstoms) -------  3351 
Wavelength Increment (Angstroms) --  .25 
Filter Wheel #1 Position ---------- (1) Ground quartz diffuser (ND=2.32)
Filter Wheel #2 Position ---------- 



************************************************************
HL scan start time = 21:49:52
Dark Count =  6.1 


Time (GMT)  Wavelength (Ang)  Step Number  Raw Counts  Counts/Second

 1310.38        3331.00           6572          69.00       274.20
 1310.60        3331.25           6576          65.00       256.76
 1310.64        3331.50           6579          64.00       252.40
 1310.67        3331.75           6583          55.00       213.17
 1310.70        3332.00           6587          64.00       252.40
 1310.73        3332.25           6591          72.00       287.27
 1310.76        3332.50           6594          81.00       326.51
 1310.79        3332.75           6598          65.00       256.76
 1310.82        3333.00           6602          69.00       274.20
 1310.85        3333.25           6605          71.00       282.91
 1310.88        3333.50           6609          77.00       309.07
 1310.91        3333.75           6613          62.00       243.68
 1310.94        3334.00           6617          69.00       274.20
 1310.97        3334.25           6620          70.00       278.55
 1311.00        3334.50           6624          79.00       317.79
 1311.03        3334.75           6628          72.00       287.27
 1311.07        3335.00           6632          78.00       313.43
 1311.10        3335.25           6635          97.00       396.26
 1311.13        3335.50           6639         182.00       766.80
 1311.16        3335.75           6643         383.00      1643.06
 1311.19        3336.00           6646         717.00      3099.22
 1311.22        3336.25           6650        1278.00      5545.33
 1311.25        3336.50           6654        2144.00      9321.96
 1311.28        3336.75           6658        3217.00     14002.44
 1311.31        3337.00           6661        4249.00     18505.23
 1311.34        3337.25           6665        5817.00     25348.85
 1311.38        3337.50           6669        7545.00     32893.85
 1311.41        3337.75           6673        9288.00     40507.56
 1311.44        3338.00           6676       10681.00     46594.75
 1311.47        3338.25           6680       12343.00     53860.16
 1311.50        3338.50           6684       14347.00     62624.54
 1311.53        3338.75           6688       16339.00     71340.71
 1311.56        3339.00           6691       17778.00     77639.84
 1311.59        3339.25           6695       19375.00     84633.19
 1311.62        3339.50           6699       21240.00     92803.61
 1311.66        3339.75           6702       22493.00     98295.01
 1311.69        3340.00           6706       24217.00    105853.40
 1311.72        3340.25           6710       25913.00    113292.10
 1311.75        3340.50           6714       27528.00    120378.50
 1311.78        3340.75           6717       28586.00    125022.30
 1311.81        3341.00           6721       29920.00    130879.40
 1311.84        3341.25           6725       30843.00    134933.00
 1311.87        3341.50           6729       31127.00    136180.40
 1311.90        3341.75           6732       31236.00    136659.20
 1311.93        3342.00           6736       30949.00    135398.60
 1311.96        3342.25           6740       30105.00    131691.80
 1311.99        3342.50           6744       28921.00    126493.00
 1312.02        3342.75           6747       27863.00    121848.80
 1312.05        3343.00           6751       26358.00    115244.40
 1312.09        3343.25           6755       24652.00    107761.00
 1312.12        3343.50           6759       22580.00     98676.36
 1312.15        3343.75           6762       21312.00     93119.11
 1312.18        3344.00           6766       19343.00     84493.03
 1312.21        3344.25           6770       17490.00     76378.96
 1312.24        3344.50           6773       15715.00     68609.90
 1312.27        3344.75           6777       13693.00     59763.83
 1312.30        3345.00           6781       11773.00     51368.08
 1312.33        3345.25           6785        9987.00     43561.83
 1312.36        3345.50           6788        8636.00     37659.13
 1312.40        3345.75           6792        7069.00     30815.16
 1312.43        3346.00           6796        5446.00     23729.36
 1312.46        3346.25           6800        4044.00     17610.69
 1312.49        3346.50           6803        3156.00     13736.32
 1312.52        3346.75           6807        2067.00      8986.13
 1312.55        3347.00           6811        1224.00      5309.86
 1312.58        3347.25           6815         657.00      2837.63
 1312.61        3347.50           6818         406.00      1743.33
 1312.64        3347.75           6822         216.00       915.02
 1312.67        3348.00           6826         113.00       466.00
 1312.70        3348.25           6830          91.00       370.10
 1312.73        3348.50           6833          69.00       274.20
 1312.76        3348.75           6837          73.00       291.63
 1312.80        3349.00           6841          77.00       309.07
 1312.83        3349.25           6845          68.00       269.84
 1312.86        3349.50           6848          76.00       304.71
 1312.89        3349.75           6852          74.00       295.99
 1312.92        3350.00           6856          68.00       269.84
 1312.95        3350.25           6860          73.00       291.63
 1312.98        3350.50           6863          75.00       300.35
 1313.01        3350.75           6867          75.00       300.35
 1313.04        3351.00           6871          72.00       287.27
HL scan finished at 21:53:41
end
