************************************************************
  HL Scan of (1) Internal mercury lamp
************************************************************
Integration time is 0.2294 seconds per sample
dh230619El Arenosillo 37.1 6.73 2.911481pr1000
************************************************************
Dead Time -------------------------  2.8E-08 
Number of Cycles Used -------------  4 
Starting Wavelength (Angstroms) ---  3331 
Final Wavelength (Angstoms) -------  3351 
Wavelength Increment (Angstroms) --  .25 
Filter Wheel #1 Position ---------- (1) Ground quartz diffuser (ND=2.32)
Filter Wheel #2 Position ---------- 



************************************************************
HL scan start time = 02:33:50
Dark Count =  6.3 


Time (GMT)  Wavelength (Ang)  Step Number  Raw Counts  Counts/Second

  154.35        3331.00           6572          67.00       264.61
  154.58        3331.25           6576          57.00       221.01
  154.61        3331.50           6579          65.00       255.89
  154.64        3331.75           6583          59.00       229.73
  154.67        3332.00           6587          71.00       282.04
  154.70        3332.25           6591          65.00       255.89
  154.73        3332.50           6594          72.00       286.40
  154.76        3332.75           6598          70.00       277.68
  154.79        3333.00           6602          66.00       260.25
  154.82        3333.25           6605          64.00       251.53
  154.85        3333.50           6609          70.00       277.68
  154.88        3333.75           6613          68.00       268.96
  154.91        3334.00           6617          71.00       282.04
  154.94        3334.25           6620          67.00       264.61
  154.97        3334.50           6624          72.00       286.40
  155.00        3334.75           6628          73.00       290.76
  155.03        3335.00           6632          76.00       303.84
  155.06        3335.25           6635          94.00       382.31
  155.09        3335.50           6639         167.00       700.54
  155.12        3335.75           6643         383.00      1642.19
  155.15        3336.00           6646         681.00      2941.39
  155.19        3336.25           6650        1241.00      5383.11
  155.22        3336.50           6654        2034.00      8841.33
  155.25        3336.75           6658        3129.00     13617.66
  155.28        3337.00           6661        4159.00     18111.63
  155.31        3337.25           6665        5710.00     24880.89
  155.34        3337.50           6669        7303.00     31836.13
  155.37        3337.75           6673        8884.00     38741.66
  155.40        3338.00           6676       10256.00     44736.48
  155.43        3338.25           6680       12133.00     52941.11
  155.46        3338.50           6684       13988.00     61053.29
  155.49        3338.75           6688       15928.00     69541.12
  155.52        3339.00           6691       17439.00     76154.80
  155.55        3339.25           6695       18884.00     82481.91
  155.58        3339.50           6699       20577.00     89897.75
  155.61        3339.75           6702       21840.00     95432.09
  155.64        3340.00           6706       23665.00    103432.10
  155.67        3340.25           6710       25228.00    110286.40
  155.70        3340.50           6714       27041.00    118240.40
  155.73        3340.75           6717       28104.00    122905.70
  155.77        3341.00           6721       29338.00    128322.90
  155.80        3341.25           6725       30282.00    132468.20
  155.83        3341.50           6729       30777.00    134642.20
  155.86        3341.75           6732       30798.00    134734.40
  155.88        3342.00           6736       30414.00    133047.90
  155.92        3342.25           6740       29579.00    129381.10
  155.95        3342.50           6744       28616.00    125153.20
  155.98        3342.75           6747       27561.00    120522.40
  156.01        3343.00           6751       26054.00    113909.80
  156.04        3343.25           6755       24433.00    106799.70
  156.07        3343.50           6759       22448.00     98096.89
  156.10        3343.75           6762       21004.00     91768.62
  156.13        3344.00           6766       19081.00     83344.66
  156.16        3344.25           6770       17165.00     74955.31
  156.19        3344.50           6773       15670.00     68412.10
  156.22        3344.75           6777       13778.00     60134.73
  156.25        3345.00           6781       11742.00     51231.68
  156.28        3345.25           6785       10007.00     43648.34
  156.31        3345.50           6788        8485.00     36998.64
  156.34        3345.75           6792        6961.00     30342.68
  156.37        3346.00           6796        5329.00     23217.79
  156.40        3346.25           6800        3949.00     17195.29
  156.43        3346.50           6803        3013.00     13111.61
  156.46        3346.75           6807        1915.00      8322.34
  156.49        3347.00           6811        1214.00      5265.38
  156.52        3347.25           6815         652.00      2814.96
  156.55        3347.50           6818         389.00      1668.34
  156.58        3347.75           6822         200.00       844.40
  156.62        3348.00           6826         130.00       539.24
  156.65        3348.25           6830          97.00       395.38
  156.68        3348.50           6833          76.00       303.84
  156.71        3348.75           6837          84.00       338.71
  156.74        3349.00           6841          71.00       282.04
  156.77        3349.25           6845          72.00       286.40
  156.80        3349.50           6848          69.00       273.32
  156.83        3349.75           6852          71.00       282.04
  156.86        3350.00           6856          74.00       295.12
  156.89        3350.25           6860          68.00       268.96
  156.92        3350.50           6863          79.00       316.92
  156.95        3350.75           6867          67.00       264.61
  156.98        3351.00           6871          79.00       316.92
HL scan finished at 02:37:37
end
