************************************************************
  HL Scan of (1) Internal mercury lamp
************************************************************
Integration time is 0.2294 seconds per sample
dh200619El Arenosillo 37.1 6.73 2.911481pr1000
************************************************************
Dead Time -------------------------  2.8E-08 
Number of Cycles Used -------------  4 
Starting Wavelength (Angstroms) ---  3331 
Final Wavelength (Angstoms) -------  3351 
Wavelength Increment (Angstroms) --  .25 
Filter Wheel #1 Position ---------- (1) Ground quartz diffuser (ND=2.32)
Filter Wheel #2 Position ---------- 



************************************************************
HL scan start time = 03:56:00
Dark Count =  4.3 


Time (GMT)  Wavelength (Ang)  Step Number  Raw Counts  Counts/Second

  236.51        3331.00           6572          62.00       251.53
  236.73        3331.25           6576          69.00       282.04
  236.76        3331.50           6579          68.00       277.68
  236.79        3331.75           6583          71.00       290.76
  236.82        3332.00           6587          69.00       282.04
  236.85        3332.25           6591          66.00       268.96
  236.88        3332.50           6594          65.00       264.61
  236.91        3332.75           6598          71.00       290.76
  236.94        3333.00           6602          66.00       268.96
  236.97        3333.25           6605          81.00       334.35
  237.00        3333.50           6609          59.00       238.45
  237.03        3333.75           6613          73.00       299.48
  237.06        3334.00           6617          58.00       234.09
  237.09        3334.25           6620          70.00       286.40
  237.12        3334.50           6624          80.00       329.99
  237.16        3334.75           6628          77.00       316.92
  237.19        3335.00           6632          78.00       321.28
  237.22        3335.25           6635          97.00       404.10
  237.25        3335.50           6639         155.00       656.94
  237.28        3335.75           6643         364.00      1568.07
  237.31        3336.00           6646         638.00      2762.64
  237.34        3336.25           6650        1203.00      5226.14
  237.37        3336.50           6654        2002.00      8710.49
  237.40        3336.75           6658        3091.00     13460.61
  237.43        3337.00           6661        4095.00     17841.08
  237.46        3337.25           6665        5412.00     23588.81
  237.49        3337.50           6669        7095.00     30936.55
  237.52        3337.75           6673        8838.00     38549.43
  237.55        3338.00           6676       10173.00     44382.50
  237.58        3338.25           6680       12080.00     52718.13
  237.62        3338.50           6684       13916.00     60747.09
  237.65        3338.75           6688       15629.00     68241.43
  237.68        3339.00           6691       16971.00     74114.85
  237.71        3339.25           6695       18684.00     81614.81
  237.74        3339.50           6699       20524.00     89674.31
  237.77        3339.75           6702       21860.00     95528.50
  237.80        3340.00           6706       23370.00    102147.50
  237.83        3340.25           6710       25072.00    109611.00
  237.86        3340.50           6714       26754.00    116989.80
  237.89        3340.75           6717       27632.00    120842.80
  237.92        3341.00           6721       28941.00    126588.70
  237.95        3341.25           6725       29976.00    131133.20
  237.98        3341.50           6729       30235.00    132270.60
  238.01        3341.75           6732       30404.00    133012.80
  238.05        3342.00           6736       29873.00    130680.90
  238.08        3342.25           6740       29165.00    127572.10
  238.11        3342.50           6744       28163.00    123173.40
  238.14        3342.75           6747       27161.00    118775.80
  238.17        3343.00           6751       25617.00    112001.50
  238.20        3343.25           6755       23977.00    104808.90
  238.23        3343.50           6759       22169.00     96882.78
  238.26        3343.75           6762       20798.00     90874.79
  238.29        3344.00           6766       18819.00     82206.00
  238.32        3344.25           6770       16804.00     73383.85
  238.35        3344.50           6773       15292.00     66766.81
  238.38        3344.75           6777       13388.00     58437.74
  238.41        3345.00           6781       11476.00     50077.59
  238.44        3345.25           6785        9819.00     42835.57
  238.47        3345.50           6788        8473.00     36954.96
  238.50        3345.75           6792        6958.00     30338.32
  238.53        3346.00           6796        5480.00     23885.63
  238.56        3346.25           6800        4057.00     17675.27
  238.59        3346.50           6803        3106.00     13526.05
  238.62        3346.75           6807        2042.00      8884.95
  238.65        3347.00           6811        1195.00      5191.25
  238.68        3347.25           6815         668.00      2893.43
  238.71        3347.50           6818         422.00      1820.93
  238.75        3347.75           6822         230.00       983.90
  238.78        3348.00           6826         119.00       500.01
  238.81        3348.25           6830          88.00       364.87
  238.84        3348.50           6833          78.00       321.28
  238.87        3348.75           6837          67.00       273.32
  238.90        3349.00           6841          72.00       295.12
  238.93        3349.25           6845          77.00       316.92
  238.96        3349.50           6848          74.00       303.84
  238.99        3349.75           6852          67.00       273.32
  239.02        3350.00           6856          68.00       277.68
  239.05        3350.25           6860          70.00       286.40
  239.08        3350.50           6863          69.00       282.04
  239.11        3350.75           6867          72.00       295.12
  239.14        3351.00           6871          74.00       303.84
HL scan finished at 03:59:47
end
************************************************************
  HL Scan of (1) Internal mercury lamp
************************************************************
Integration time is 0.2294 seconds per sample
dh200619El Arenosillo 37.1 6.73 3.018777pr1000
************************************************************
Dead Time -------------------------  2.8E-08 
Number of Cycles Used -------------  4 
Starting Wavelength (Angstroms) ---  3331 
Final Wavelength (Angstoms) -------  3351 
Wavelength Increment (Angstroms) --  .25 
Filter Wheel #1 Position ---------- (1) Ground quartz diffuser (ND=2.32)
Filter Wheel #2 Position ---------- 



************************************************************
HL scan start time = 21:50:03
Dark Count =  4.9 


Time (GMT)  Wavelength (Ang)  Step Number  Raw Counts  Counts/Second

 1310.58        3331.00           6572          72.00       292.50
 1310.80        3331.25           6576          61.00       244.55
 1310.83        3331.50           6579          66.00       266.35
 1310.86        3331.75           6583          64.00       257.63
 1310.89        3332.00           6587          71.00       288.15
 1310.92        3332.25           6591          75.00       305.58
 1310.95        3332.50           6594          66.00       266.35
 1310.98        3332.75           6598          66.00       266.35
 1311.02        3333.00           6602          75.00       305.58
 1311.05        3333.25           6605          63.00       253.27
 1311.08        3333.50           6609          64.00       257.63
 1311.11        3333.75           6613          73.00       296.86
 1311.14        3334.00           6617          69.00       279.43
 1311.17        3334.25           6620          77.00       314.30
 1311.21        3334.50           6624          83.00       340.46
 1311.24        3334.75           6628          82.00       336.10
 1311.27        3335.00           6632          85.00       349.18
 1311.30        3335.25           6635         104.00       432.00
 1311.33        3335.50           6639         177.00       750.23
 1311.36        3335.75           6643         460.00      1983.98
 1311.39        3336.00           6646         806.00      3492.49
 1311.42        3336.25           6650        1412.00      6134.88
 1311.45        3336.50           6654        2247.00      9776.44
 1311.48        3336.75           6658        3450.00     15024.19
 1311.51        3337.00           6661        4559.00     19863.27
 1311.54        3337.25           6665        6157.00     26838.38
 1311.57        3337.50           6669        7915.00     34515.03
 1311.60        3337.75           6673        9753.00     42544.55
 1311.64        3338.00           6676       11048.00     48204.08
 1311.67        3338.25           6680       13023.00     56838.86
 1311.70        3338.50           6684       14939.00     65219.69
 1311.73        3338.75           6688       17098.00     74668.15
 1311.76        3339.00           6691       18664.00     81524.59
 1311.79        3339.25           6695       20310.00     88734.15
 1311.82        3339.50           6699       22146.00     96779.33
 1311.85        3339.75           6702       23615.00    103219.00
 1311.88        3340.00           6706       25511.00    111533.90
 1311.91        3340.25           6710       27141.00    118685.40
 1311.94        3340.50           6714       28915.00    126471.90
 1311.98        3340.75           6717       30011.00    131284.20
 1312.01        3341.00           6721       31221.00    136598.60
 1312.04        3341.25           6725       32314.00    141400.50
 1312.07        3341.50           6729       32748.00    143307.60
 1312.10        3341.75           6732       32782.00    143457.00
 1312.13        3342.00           6736       32183.00    140824.90
 1312.16        3342.25           6740       31200.00    136506.40
 1312.19        3342.50           6744       30211.00    132162.60
 1312.22        3342.75           6747       29033.00    126990.00
 1312.25        3343.00           6751       27284.00    119312.90
 1312.28        3343.25           6755       25707.00    112393.70
 1312.31        3343.50           6759       23579.00    103061.20
 1312.34        3343.75           6762       22053.00     96371.72
 1312.37        3344.00           6766       19933.00     87082.61
 1312.40        3344.25           6770       17985.00     78551.40
 1312.44        3344.50           6773       16444.00     71805.52
 1312.47        3344.75           6777       14400.00     62861.64
 1312.50        3345.00           6781       12253.00     53471.89
 1312.53        3345.25           6785       10213.00     44554.68
 1312.56        3345.50           6788        8821.00     38472.55
 1312.59        3345.75           6792        7103.00     30968.87
 1312.62        3346.00           6796        5481.00     23887.38
 1312.65        3346.25           6800        4087.00     17803.56
 1312.69        3346.50           6803        3080.00     13410.00
 1312.72        3346.75           6807        2017.00      8773.30
 1312.75        3347.00           6811        1219.00      5293.29
 1312.78        3347.25           6815         636.00      2751.30
 1312.81        3347.50           6818         414.00      1783.44
 1312.84        3347.75           6822         219.00       933.33
 1312.87        3348.00           6826         126.00       527.91
 1312.90        3348.25           6830          86.00       353.53
 1312.93        3348.50           6833          77.00       314.30
 1312.96        3348.75           6837          73.00       296.86
 1312.99        3349.00           6841          74.00       301.22
 1313.02        3349.25           6845          69.00       279.43
 1313.05        3349.50           6848          78.00       318.66
 1313.08        3349.75           6852          81.00       331.74
 1313.11        3350.00           6856          69.00       279.43
 1313.14        3350.25           6860          77.00       314.30
 1313.18        3350.50           6863          86.00       353.53
 1313.21        3350.75           6867          74.00       301.22
 1313.24        3351.00           6871          82.00       336.10
HL scan finished at 21:53:53
end
