************************************************************
  HL Scan of (1) Internal mercury lamp
************************************************************
Integration time is 0.2294 seconds per sample
dh220619El Arenosillo 37.1 6.73 3.072425pr1000
************************************************************
Dead Time -------------------------  2.8E-08 
Number of Cycles Used -------------  4 
Starting Wavelength (Angstroms) ---  3331 
Final Wavelength (Angstoms) -------  3351 
Wavelength Increment (Angstroms) --  .25 
Filter Wheel #1 Position ---------- (1) Ground quartz diffuser (ND=2.32)
Filter Wheel #2 Position ---------- 



************************************************************
HL scan start time = 01:14:35
Dark Count =  7.8 


Time (GMT)  Wavelength (Ang)  Step Number  Raw Counts  Counts/Second

   75.09        3331.00           6572          75.00       292.94
   75.31        3331.25           6576          71.00       275.50
   75.34        3331.50           6579          65.00       249.35
   75.37        3331.75           6583          70.00       271.14
   75.41        3332.00           6587          70.00       271.14
   75.44        3332.25           6591          66.00       253.71
   75.47        3332.50           6594          72.00       279.86
   75.50        3332.75           6598          72.00       279.86
   75.53        3333.00           6602          76.00       297.30
   75.56        3333.25           6605          74.00       288.58
   75.60        3333.50           6609          77.00       301.66
   75.63        3333.75           6613          74.00       288.58
   75.66        3334.00           6617          75.00       292.94
   75.69        3334.25           6620          73.00       284.22
   75.72        3334.50           6624          74.00       288.58
   75.76        3334.75           6628          79.00       310.38
   75.79        3335.00           6632          89.00       353.97
   75.82        3335.25           6635         108.00       436.80
   75.85        3335.50           6639         144.00       593.73
   75.88        3335.75           6643         356.00      1517.94
   75.91        3336.00           6646         662.00      2852.02
   75.95        3336.25           6650        1297.00      5620.76
   75.98        3336.50           6654        2153.00      9353.80
   76.01        3336.75           6658        3425.00     14902.47
   76.05        3337.00           6661        4592.00     19994.63
   76.08        3337.25           6665        6461.00     28152.96
   76.11        3337.50           6669        8441.00     36799.89
   76.14        3337.75           6673       10564.00     46075.97
   76.17        3338.00           6676       12196.00     53209.99
   76.21        3338.25           6680       14358.00     62665.23
   76.24        3338.50           6684       16566.00     72326.79
   76.27        3338.75           6688       18738.00     81835.96
   76.30        3339.00           6691       20246.00     88441.06
   76.33        3339.25           6695       22124.00     96670.21
   76.37        3339.50           6699       24020.00    104982.10
   76.40        3339.75           6702       25425.00    111144.00
   76.43        3340.00           6706       26975.00    117944.20
   76.46        3340.25           6710       28931.00    126529.40
   76.49        3340.50           6714       30939.00    135347.20
   76.52        3340.75           6717       32307.00    141357.00
   76.56        3341.00           6721       33796.00    147900.70
   76.59        3341.25           6725       35061.00    153461.90
   76.62        3341.50           6729       35593.00    155801.10
   76.65        3341.75           6732       35952.00    157379.90
   76.68        3342.00           6736       35441.00    155132.70
   76.72        3342.25           6740       34552.00    151224.00
   76.75        3342.50           6744       33204.00    145298.70
   76.78        3342.75           6747       32040.00    140183.90
   76.81        3343.00           6751       30252.00    132329.90
   76.84        3343.25           6755       28448.00    124409.10
   76.88        3343.50           6759       26347.00    115188.70
   76.91        3343.75           6762       24796.00    108385.10
   76.94        3344.00           6766       22674.00     99080.96
   76.97        3344.25           6770       20261.00     88506.77
   77.00        3344.50           6773       18802.00     82116.23
   77.03        3344.75           6777       16515.00     72103.57
   77.07        3345.00           6781       14340.00     62586.48
   77.10        3345.25           6785       12309.00     53704.07
   77.13        3345.50           6788       10699.00     46665.99
   77.16        3345.75           6792        8740.00     38106.03
   77.19        3346.00           6796        6738.00     29362.41
   77.23        3346.25           6800        4950.00     21557.04
   77.26        3346.50           6803        3901.00     16979.30
   77.29        3346.75           6807        2662.00     11573.93
   77.32        3347.00           6811        1600.00      6942.06
   77.35        3347.25           6815         820.00      3540.89
   77.39        3347.50           6818         505.00      2167.53
   77.42        3347.75           6822         244.00      1029.67
   77.45        3348.00           6826         141.00       580.65
   77.48        3348.25           6830          94.00       375.77
   77.51        3348.50           6833          89.00       353.97
   77.55        3348.75           6837          80.00       314.74
   77.58        3349.00           6841          77.00       301.66
   77.61        3349.25           6845          78.00       306.02
   77.64        3349.50           6848          70.00       271.14
   77.67        3349.75           6852          81.00       319.10
   77.70        3350.00           6856          67.00       258.07
   77.74        3350.25           6860          88.00       349.61
   77.77        3350.50           6863          74.00       288.58
   77.80        3350.75           6867          77.00       301.66
   77.83        3351.00           6871          75.00       292.94
HL scan finished at 01:18:28
end
************************************************************
  HL Scan of (1) Internal mercury lamp
************************************************************
Integration time is 0.2294 seconds per sample
dh220619El Arenosillo 37.1 6.73 3.072425pr1000
************************************************************
Dead Time -------------------------  2.8E-08 
Number of Cycles Used -------------  4 
Starting Wavelength (Angstroms) ---  3331 
Final Wavelength (Angstoms) -------  3351 
Wavelength Increment (Angstroms) --  .25 
Filter Wheel #1 Position ---------- (1) Ground quartz diffuser (ND=2.32)
Filter Wheel #2 Position ---------- 



************************************************************
HL scan start time = 02:33:38
Dark Count =  6.4 


Time (GMT)  Wavelength (Ang)  Step Number  Raw Counts  Counts/Second

  154.16        3331.00           6572          68.00       268.53
  154.38        3331.25           6576          69.00       272.89
  154.41        3331.50           6579          70.00       277.25
  154.44        3331.75           6583          62.00       242.37
  154.47        3332.00           6587          73.00       290.32
  154.50        3332.25           6591          74.00       294.68
  154.53        3332.50           6594          75.00       299.04
  154.56        3332.75           6598          73.00       290.32
  154.59        3333.00           6602          74.00       294.68
  154.62        3333.25           6605          69.00       272.89
  154.65        3333.50           6609          71.00       281.61
  154.68        3333.75           6613          77.00       307.76
  154.71        3334.00           6617          69.00       272.89
  154.74        3334.25           6620          71.00       281.61
  154.77        3334.50           6624          77.00       307.76
  154.80        3334.75           6628          81.00       325.20
  154.83        3335.00           6632          83.00       333.92
  154.86        3335.25           6635         102.00       416.74
  154.89        3335.50           6639         198.00       835.24
  154.92        3335.75           6643         490.00      2108.23
  154.95        3336.00           6646         886.00      3834.76
  154.99        3336.25           6650        1667.00      7240.35
  155.02        3336.50           6654        2644.00     11501.53
  155.05        3336.75           6658        4006.00     17443.57
  155.08        3337.00           6661        5139.00     22388.05
  155.11        3337.25           6665        7027.00     30630.45
  155.14        3337.50           6669        9057.00     39497.01
  155.17        3337.75           6673       11076.00     48319.91
  155.20        3338.00           6676       12482.00     54466.61
  155.23        3338.25           6680       14476.00     63187.55
  155.26        3338.50           6684       16351.00     71391.91
  155.29        3338.75           6688       17912.00     78225.21
  155.32        3339.00           6691       19483.00     85104.91
  155.35        3339.25           6695       21226.00     92740.94
  155.38        3339.50           6699       22770.00     99507.91
  155.41        3339.75           6702       24203.00    105790.70
  155.44        3340.00           6706       25894.00    113207.50
  155.47        3340.25           6710       27857.00    121821.10
  155.50        3340.50           6714       29501.00    129038.20
  155.53        3340.75           6717       30819.00    134826.30
  155.57        3341.00           6721       32106.00    140480.00
  155.60        3341.25           6725       33076.00    144742.40
  155.63        3341.50           6729       33333.00    145871.90
  155.66        3341.75           6732       33276.00    145621.40
  155.69        3342.00           6736       32604.00    142668.20
  155.72        3342.25           6740       31390.00    137334.40
  155.75        3342.50           6744       30194.00    132081.30
  155.78        3342.75           6747       29053.00    127071.20
  155.81        3343.00           6751       27279.00    119284.40
  155.84        3343.25           6755       25456.00    111286.10
  155.87        3343.50           6759       23610.00    103190.50
  155.90        3343.75           6762       21958.00     95948.80
  155.93        3344.00           6766       20029.00     87496.57
  155.96        3344.25           6770       17951.00     78395.96
  155.99        3344.50           6773       16548.00     72254.15
  156.02        3344.75           6777       14372.00     62732.59
  156.05        3345.00           6781       12505.00     54567.19
  156.09        3345.25           6785       10609.00     46278.76
  156.12        3345.50           6788        9206.00     40147.98
  156.15        3345.75           6792        7168.00     31246.16
  156.18        3346.00           6796        5547.00     24168.93
  156.21        3346.25           6800        3897.00     16967.96
  156.24        3346.50           6803        2896.00     12600.78
  156.27        3346.75           6807        1798.00      7811.65
  156.30        3347.00           6811        1021.00      4423.39
  156.33        3347.25           6815         501.00      2156.19
  156.36        3347.50           6818         317.00      1354.02
  156.39        3347.75           6822         157.00       656.51
  156.42        3348.00           6826         107.00       438.54
  156.45        3348.25           6830          83.00       333.92
  156.48        3348.50           6833          80.00       320.84
  156.51        3348.75           6837          72.00       285.97
  156.54        3349.00           6841          70.00       277.25
  156.57        3349.25           6845          74.00       294.68
  156.60        3349.50           6848          68.00       268.53
  156.63        3349.75           6852          72.00       285.97
  156.66        3350.00           6856          70.00       277.25
  156.69        3350.25           6860          76.00       303.40
  156.73        3350.50           6863          78.00       312.12
  156.76        3350.75           6867          78.00       312.12
  156.79        3351.00           6871          79.00       316.48
HL scan finished at 02:37:26
end
