************************************************************
  HL Scan of (1) Internal mercury lamp
************************************************************
Integration time is 0.2294 seconds per sample
dh200619El Arenosillo 37.1 6.73 2.911481pr1000
************************************************************
Dead Time -------------------------  2.8E-08 
Number of Cycles Used -------------  4 
Starting Wavelength (Angstroms) ---  3331 
Final Wavelength (Angstoms) -------  3351 
Wavelength Increment (Angstroms) --  .25 
Filter Wheel #1 Position ---------- (1) Ground quartz diffuser (ND=2.32)
Filter Wheel #2 Position ---------- 



************************************************************
HL scan start time = 03:56:00
Dark Count =  4.3 


Time (GMT)  Wavelength (Ang)  Step Number  Raw Counts  Counts/Second

  236.51        3331.00           6572          62.00       251.53
  236.73        3331.25           6576          69.00       282.04
  236.76        3331.50           6579          68.00       277.68
  236.79        3331.75           6583          71.00       290.76
  236.82        3332.00           6587          69.00       282.04
  236.85        3332.25           6591          66.00       268.96
  236.88        3332.50           6594          65.00       264.61
  236.91        3332.75           6598          71.00       290.76
  236.94        3333.00           6602          66.00       268.96
  236.97        3333.25           6605          81.00       334.35
  237.00        3333.50           6609          59.00       238.45
  237.03        3333.75           6613          73.00       299.48
  237.06        3334.00           6617          58.00       234.09
  237.09        3334.25           6620          70.00       286.40
  237.12        3334.50           6624          80.00       329.99
  237.16        3334.75           6628          77.00       316.92
  237.19        3335.00           6632          78.00       321.28
  237.22        3335.25           6635          97.00       404.10
  237.25        3335.50           6639         155.00       656.94
  237.28        3335.75           6643         364.00      1568.07
  237.31        3336.00           6646         638.00      2762.64
  237.34        3336.25           6650        1203.00      5226.14
  237.37        3336.50           6654        2002.00      8710.49
  237.40        3336.75           6658        3091.00     13460.61
  237.43        3337.00           6661        4095.00     17841.08
  237.46        3337.25           6665        5412.00     23588.81
  237.49        3337.50           6669        7095.00     30936.55
  237.52        3337.75           6673        8838.00     38549.43
  237.55        3338.00           6676       10173.00     44382.50
  237.58        3338.25           6680       12080.00     52718.13
  237.62        3338.50           6684       13916.00     60747.09
  237.65        3338.75           6688       15629.00     68241.43
  237.68        3339.00           6691       16971.00     74114.85
  237.71        3339.25           6695       18684.00     81614.81
  237.74        3339.50           6699       20524.00     89674.31
  237.77        3339.75           6702       21860.00     95528.50
  237.80        3340.00           6706       23370.00    102147.50
  237.83        3340.25           6710       25072.00    109611.00
  237.86        3340.50           6714       26754.00    116989.80
  237.89        3340.75           6717       27632.00    120842.80
  237.92        3341.00           6721       28941.00    126588.70
  237.95        3341.25           6725       29976.00    131133.20
  237.98        3341.50           6729       30235.00    132270.60
  238.01        3341.75           6732       30404.00    133012.80
  238.05        3342.00           6736       29873.00    130680.90
  238.08        3342.25           6740       29165.00    127572.10
  238.11        3342.50           6744       28163.00    123173.40
  238.14        3342.75           6747       27161.00    118775.80
  238.17        3343.00           6751       25617.00    112001.50
  238.20        3343.25           6755       23977.00    104808.90
  238.23        3343.50           6759       22169.00     96882.78
  238.26        3343.75           6762       20798.00     90874.79
  238.29        3344.00           6766       18819.00     82206.00
  238.32        3344.25           6770       16804.00     73383.85
  238.35        3344.50           6773       15292.00     66766.81
  238.38        3344.75           6777       13388.00     58437.74
  238.41        3345.00           6781       11476.00     50077.59
  238.44        3345.25           6785        9819.00     42835.57
  238.47        3345.50           6788        8473.00     36954.96
  238.50        3345.75           6792        6958.00     30338.32
  238.53        3346.00           6796        5480.00     23885.63
  238.56        3346.25           6800        4057.00     17675.27
  238.59        3346.50           6803        3106.00     13526.05
  238.62        3346.75           6807        2042.00      8884.95
  238.65        3347.00           6811        1195.00      5191.25
  238.68        3347.25           6815         668.00      2893.43
  238.71        3347.50           6818         422.00      1820.93
  238.75        3347.75           6822         230.00       983.90
  238.78        3348.00           6826         119.00       500.01
  238.81        3348.25           6830          88.00       364.87
  238.84        3348.50           6833          78.00       321.28
  238.87        3348.75           6837          67.00       273.32
  238.90        3349.00           6841          72.00       295.12
  238.93        3349.25           6845          77.00       316.92
  238.96        3349.50           6848          74.00       303.84
  238.99        3349.75           6852          67.00       273.32
  239.02        3350.00           6856          68.00       277.68
  239.05        3350.25           6860          70.00       286.40
  239.08        3350.50           6863          69.00       282.04
  239.11        3350.75           6867          72.00       295.12
  239.14        3351.00           6871          74.00       303.84
HL scan finished at 03:59:47
end
