************************************************************
  HL Scan of (1) Internal mercury lamp
************************************************************
Integration time is 0.2294 seconds per sample
dh230619El Arenosillo 37.1 6.73 2.911481pr1000
************************************************************
Dead Time -------------------------  2.8E-08 
Number of Cycles Used -------------  4 
Starting Wavelength (Angstroms) ---  3331 
Final Wavelength (Angstoms) -------  3351 
Wavelength Increment (Angstroms) --  .25 
Filter Wheel #1 Position ---------- (1) Ground quartz diffuser (ND=2.32)
Filter Wheel #2 Position ---------- 



************************************************************
HL scan start time = 02:33:50
Dark Count =  6.3 


Time (GMT)  Wavelength (Ang)  Step Number  Raw Counts  Counts/Second

  154.35        3331.00           6572          67.00       264.61
  154.58        3331.25           6576          57.00       221.01
  154.61        3331.50           6579          65.00       255.89
  154.64        3331.75           6583          59.00       229.73
  154.67        3332.00           6587          71.00       282.04
  154.70        3332.25           6591          65.00       255.89
  154.73        3332.50           6594          72.00       286.40
  154.76        3332.75           6598          70.00       277.68
  154.79        3333.00           6602          66.00       260.25
  154.82        3333.25           6605          64.00       251.53
  154.85        3333.50           6609          70.00       277.68
  154.88        3333.75           6613          68.00       268.96
  154.91        3334.00           6617          71.00       282.04
  154.94        3334.25           6620          67.00       264.61
  154.97        3334.50           6624          72.00       286.40
  155.00        3334.75           6628          73.00       290.76
  155.03        3335.00           6632          76.00       303.84
  155.06        3335.25           6635          94.00       382.31
  155.09        3335.50           6639         167.00       700.54
  155.12        3335.75           6643         383.00      1642.19
  155.15        3336.00           6646         681.00      2941.39
  155.19        3336.25           6650        1241.00      5383.11
  155.22        3336.50           6654        2034.00      8841.33
  155.25        3336.75           6658        3129.00     13617.66
  155.28        3337.00           6661        4159.00     18111.63
  155.31        3337.25           6665        5710.00     24880.89
  155.34        3337.50           6669        7303.00     31836.13
  155.37        3337.75           6673        8884.00     38741.66
  155.40        3338.00           6676       10256.00     44736.48
  155.43        3338.25           6680       12133.00     52941.11
  155.46        3338.50           6684       13988.00     61053.29
  155.49        3338.75           6688       15928.00     69541.12
  155.52        3339.00           6691       17439.00     76154.80
  155.55        3339.25           6695       18884.00     82481.91
  155.58        3339.50           6699       20577.00     89897.75
  155.61        3339.75           6702       21840.00     95432.09
  155.64        3340.00           6706       23665.00    103432.10
  155.67        3340.25           6710       25228.00    110286.40
  155.70        3340.50           6714       27041.00    118240.40
  155.73        3340.75           6717       28104.00    122905.70
  155.77        3341.00           6721       29338.00    128322.90
  155.80        3341.25           6725       30282.00    132468.20
  155.83        3341.50           6729       30777.00    134642.20
  155.86        3341.75           6732       30798.00    134734.40
  155.88        3342.00           6736       30414.00    133047.90
  155.92        3342.25           6740       29579.00    129381.10
  155.95        3342.50           6744       28616.00    125153.20
  155.98        3342.75           6747       27561.00    120522.40
  156.01        3343.00           6751       26054.00    113909.80
  156.04        3343.25           6755       24433.00    106799.70
  156.07        3343.50           6759       22448.00     98096.89
  156.10        3343.75           6762       21004.00     91768.62
  156.13        3344.00           6766       19081.00     83344.66
  156.16        3344.25           6770       17165.00     74955.31
  156.19        3344.50           6773       15670.00     68412.10
  156.22        3344.75           6777       13778.00     60134.73
  156.25        3345.00           6781       11742.00     51231.68
  156.28        3345.25           6785       10007.00     43648.34
  156.31        3345.50           6788        8485.00     36998.64
  156.34        3345.75           6792        6961.00     30342.68
  156.37        3346.00           6796        5329.00     23217.79
  156.40        3346.25           6800        3949.00     17195.29
  156.43        3346.50           6803        3013.00     13111.61
  156.46        3346.75           6807        1915.00      8322.34
  156.49        3347.00           6811        1214.00      5265.38
  156.52        3347.25           6815         652.00      2814.96
  156.55        3347.50           6818         389.00      1668.34
  156.58        3347.75           6822         200.00       844.40
  156.62        3348.00           6826         130.00       539.24
  156.65        3348.25           6830          97.00       395.38
  156.68        3348.50           6833          76.00       303.84
  156.71        3348.75           6837          84.00       338.71
  156.74        3349.00           6841          71.00       282.04
  156.77        3349.25           6845          72.00       286.40
  156.80        3349.50           6848          69.00       273.32
  156.83        3349.75           6852          71.00       282.04
  156.86        3350.00           6856          74.00       295.12
  156.89        3350.25           6860          68.00       268.96
  156.92        3350.50           6863          79.00       316.92
  156.95        3350.75           6867          67.00       264.61
  156.98        3351.00           6871          79.00       316.92
HL scan finished at 02:37:37
end
************************************************************
  HL Scan of (1) Internal mercury lamp
************************************************************
Integration time is 0.2294 seconds per sample
dh230619El Arenosillo 37.1 6.73 2.965129pr1000
************************************************************
Dead Time -------------------------  2.8E-08 
Number of Cycles Used -------------  4 
Starting Wavelength (Angstroms) ---  3331 
Final Wavelength (Angstoms) -------  3351 
Wavelength Increment (Angstroms) --  .25 
Filter Wheel #1 Position ---------- (1) Ground quartz diffuser (ND=2.32)
Filter Wheel #2 Position ---------- 



************************************************************
HL scan start time = 21:49:53
Dark Count =  4.6 


Time (GMT)  Wavelength (Ang)  Step Number  Raw Counts  Counts/Second

 1310.41        3331.00           6572          69.00       280.73
 1310.63        3331.25           6576          68.00       276.38
 1310.66        3331.50           6579          68.00       276.38
 1310.69        3331.75           6583          60.00       241.50
 1310.72        3332.00           6587          70.00       285.09
 1310.75        3332.25           6591          80.00       328.69
 1310.78        3332.50           6594          69.00       280.73
 1310.81        3332.75           6598          68.00       276.38
 1310.84        3333.00           6602          68.00       276.38
 1310.87        3333.25           6605          74.00       302.53
 1310.91        3333.50           6609          66.00       267.66
 1310.94        3333.75           6613          68.00       276.38
 1310.97        3334.00           6617          73.00       298.17
 1311.00        3334.25           6620          77.00       315.61
 1311.03        3334.50           6624          76.00       311.25
 1311.06        3334.75           6628          67.00       272.02
 1311.09        3335.00           6632          78.00       319.97
 1311.12        3335.25           6635          97.00       402.79
 1311.15        3335.50           6639         181.00       768.98
 1311.18        3335.75           6643         486.00      2098.64
 1311.21        3336.00           6646         840.00      3642.05
 1311.25        3336.25           6650        1565.00      6803.39
 1311.28        3336.50           6654        2558.00     11134.25
 1311.31        3336.75           6658        3681.00     16033.35
 1311.34        3337.00           6661        4728.00     20602.12
 1311.37        3337.25           6665        6297.00     27450.91
 1311.40        3337.50           6669        8011.00     34935.64
 1311.43        3337.75           6673        9706.00     42340.49
 1311.46        3338.00           6676       11115.00     48498.25
 1311.49        3338.25           6680       12926.00     56415.99
 1311.52        3338.50           6684       14885.00     64984.76
 1311.56        3338.75           6688       16489.00     72003.78
 1311.58        3339.00           6691       18001.00     78622.77
 1311.62        3339.25           6695       19612.00     85677.83
 1311.65        3339.50           6699       21314.00     93134.46
 1311.68        3339.75           6702       22649.00     98985.39
 1311.71        3340.00           6706       24456.00    106908.00
 1311.74        3340.25           6710       26339.00    115167.60
 1311.77        3340.50           6714       27853.00    121811.50
 1311.80        3340.75           6717       29076.00    127180.10
 1311.83        3341.00           6721       30418.00    133073.00
 1311.87        3341.25           6725       31360.00    137210.60
 1311.90        3341.50           6729       31441.00    137566.40
 1311.93        3341.75           6732       31263.00    136784.40
 1311.96        3342.00           6736       30672.00    134188.50
 1311.99        3342.25           6740       29807.00    130389.70
 1312.02        3342.50           6744       28720.00    125617.20
 1312.05        3342.75           6747       27651.00    120924.90
 1312.08        3343.00           6751       25801.00    112807.40
 1312.11        3343.25           6755       24256.00    106031.00
 1312.14        3343.50           6759       22267.00     97311.00
 1312.17        3343.75           6762       20998.00     91749.79
 1312.20        3344.00           6766       18965.00     82844.09
 1312.24        3344.25           6770       17051.00     74463.72
 1312.27        3344.50           6773       15546.00     67876.93
 1312.30        3344.75           6777       13569.00     59228.05
 1312.33        3345.00           6781       11585.00     50552.76
 1312.36        3345.25           6785        9858.00     43004.67
 1312.39        3345.50           6788        8479.00     36979.86
 1312.42        3345.75           6792        6497.00     28324.11
 1312.45        3346.00           6796        4892.00     21317.87
 1312.48        3346.25           6800        3584.00     15610.13
 1312.52        3346.50           6803        2682.00     11675.13
 1312.55        3346.75           6807        1681.00      7309.26
 1312.58        3347.00           6811        1003.00      4352.75
 1312.61        3347.25           6815         520.00      2246.87
 1312.64        3347.50           6818         328.00      1409.82
 1312.67        3347.75           6822         160.00       677.43
 1312.70        3348.00           6826         102.00       424.59
 1312.73        3348.25           6830          84.00       346.12
 1312.76        3348.50           6833          72.00       293.81
 1312.79        3348.75           6837          80.00       328.69
 1312.82        3349.00           6841          74.00       302.53
 1312.85        3349.25           6845          74.00       302.53
 1312.88        3349.50           6848          68.00       276.38
 1312.92        3349.75           6852          70.00       285.09
 1312.95        3350.00           6856          70.00       285.09
 1312.98        3350.25           6860          73.00       298.17
 1313.01        3350.50           6863          74.00       302.53
 1313.04        3350.75           6867          73.00       298.17
 1313.07        3351.00           6871          70.00       285.09
HL scan finished at 21:53:43
end
