************************************************************
  HL Scan of (1) Internal mercury lamp
************************************************************
Integration time is 0.2294 seconds per sample
dh260619El Arenosillo 37.1 6.73 3.018777pr1000
************************************************************
Dead Time -------------------------  2.8E-08 
Number of Cycles Used -------------  4 
Starting Wavelength (Angstroms) ---  3331 
Final Wavelength (Angstoms) -------  3351 
Wavelength Increment (Angstroms) --  .25 
Filter Wheel #1 Position ---------- (1) Ground quartz diffuser (ND=2.32)
Filter Wheel #2 Position ---------- 



************************************************************
HL scan start time = 02:27:09
Dark Count =  5.5 


Time (GMT)  Wavelength (Ang)  Step Number  Raw Counts  Counts/Second

  147.66        3331.00           6572          70.00       281.17
  147.88        3331.25           6576          75.00       302.97
  147.91        3331.50           6579          74.00       298.61
  147.95        3331.75           6583          70.00       281.17
  147.98        3332.00           6587          78.00       316.04
  148.01        3332.25           6591          72.00       289.89
  148.04        3332.50           6594          64.00       255.01
  148.07        3332.75           6598          71.00       285.53
  148.10        3333.00           6602          67.00       268.09
  148.13        3333.25           6605          72.00       289.89
  148.16        3333.50           6609          80.00       324.76
  148.19        3333.75           6613          69.00       276.81
  148.22        3334.00           6617          79.00       320.40
  148.25        3334.25           6620          74.00       298.61
  148.28        3334.50           6624          79.00       320.40
  148.31        3334.75           6628          81.00       329.12
  148.34        3335.00           6632          89.00       364.00
  148.37        3335.25           6635         102.00       420.67
  148.40        3335.50           6639         200.00       847.88
  148.44        3335.75           6643         514.00      2216.79
  148.47        3336.00           6646         857.00      3712.24
  148.50        3336.25           6650        1598.00      6943.37
  148.53        3336.50           6654        2666.00     11601.41
  148.56        3336.75           6658        4015.00     17486.76
  148.59        3337.00           6661        5193.00     22627.67
  148.62        3337.25           6665        7274.00     31712.98
  148.66        3337.50           6669        9096.00     39671.33
  148.69        3337.75           6673       11267.00     49158.73
  148.72        3338.00           6676       12864.00     56140.93
  148.75        3338.25           6680       14883.00     64972.07
  148.78        3338.50           6684       17065.00     74521.08
  148.81        3338.75           6688       19069.00     83295.61
  148.84        3339.00           6691       20471.00     89436.85
  148.87        3339.25           6695       22334.00     97600.71
  148.90        3339.50           6699       24023.00    105005.30
  148.93        3339.75           6702       25317.00    110680.30
  148.97        3340.00           6706       27017.00    118138.60
  149.00        3340.25           6710       28994.00    126816.10
  149.03        3340.50           6714       30768.00    134606.20
  149.06        3340.75           6717       31977.00    139917.20
  149.09        3341.00           6721       33408.00    146205.40
  149.12        3341.25           6725       34226.00    149800.90
  149.15        3341.50           6729       34579.00    151352.80
  149.18        3341.75           6732       34578.00    151348.40
  149.21        3342.00           6736       34104.00    149264.70
  149.24        3342.25           6740       33036.00    144570.50
  149.27        3342.50           6744       31681.00    138616.80
  149.30        3342.75           6747       30555.00    133670.70
  149.33        3343.00           6751       28532.00    124787.90
  149.37        3343.25           6755       26614.00    116370.30
  149.40        3343.50           6759       24501.00    107101.40
  149.43        3343.75           6762       22933.00    100226.40
  149.46        3344.00           6766       20889.00     91268.26
  149.49        3344.25           6770       18708.00     81714.65
  149.52        3344.50           6773       17119.00     74757.45
  149.55        3344.75           6777       15048.00     65693.96
  149.58        3345.00           6781       12929.00     56425.17
  149.61        3345.25           6785       10831.00     47252.98
  149.64        3345.50           6788        9437.00     41161.19
  149.67        3345.75           6792        7575.00     33027.48
  149.70        3346.00           6796        5910.00     25757.45
  149.73        3346.25           6800        4387.00     19110.05
  149.76        3346.50           6803        3376.00     14698.73
  149.79        3346.75           6807        2115.00      9198.10
  149.83        3347.00           6811        1157.00      5020.32
  149.86        3347.25           6815         590.00      2548.13
  149.89        3347.50           6818         322.00      1379.74
  149.92        3347.75           6822         184.00       778.13
  149.95        3348.00           6826         108.00       446.82
  149.98        3348.25           6830          82.00       333.48
  150.01        3348.50           6833          80.00       324.76
  150.04        3348.75           6837          71.00       285.53
  150.07        3349.00           6841          75.00       302.97
  150.10        3349.25           6845          73.00       294.25
  150.13        3349.50           6848          73.00       294.25
  150.16        3349.75           6852          75.00       302.97
  150.19        3350.00           6856          78.00       316.04
  150.23        3350.25           6860          74.00       298.61
  150.26        3350.50           6863          65.00       259.37
  150.29        3350.75           6867          81.00       329.12
  150.32        3351.00           6871          73.00       294.25
HL scan finished at 02:30:57
end
