************************************************************
  HL Scan of (1) Internal mercury lamp
************************************************************
Integration time is 0.2294 seconds per sample
dh250619El Arenosillo 37.1 6.73 3.018777pr1000
************************************************************
Dead Time -------------------------  2.8E-08 
Number of Cycles Used -------------  4 
Starting Wavelength (Angstroms) ---  3331 
Final Wavelength (Angstoms) -------  3351 
Wavelength Increment (Angstroms) --  .25 
Filter Wheel #1 Position ---------- (1) Ground quartz diffuser (ND=2.32)
Filter Wheel #2 Position ---------- 



************************************************************
HL scan start time = 02:36:55
Dark Count =  7.7 


Time (GMT)  Wavelength (Ang)  Step Number  Raw Counts  Counts/Second

  157.43        3331.00           6572          73.00       284.66
  157.65        3331.25           6576          68.00       262.86
  157.68        3331.50           6579          74.00       289.02
  157.71        3331.75           6583          76.00       297.74
  157.74        3332.00           6587          71.00       275.94
  157.77        3332.25           6591          69.00       267.22
  157.80        3332.50           6594          69.00       267.22
  157.83        3332.75           6598          74.00       289.02
  157.86        3333.00           6602          74.00       289.02
  157.89        3333.25           6605          74.00       289.02
  157.92        3333.50           6609          73.00       284.66
  157.95        3333.75           6613          72.00       280.30
  157.99        3334.00           6617          77.00       302.10
  158.02        3334.25           6620          72.00       280.30
  158.05        3334.50           6624          73.00       284.66
  158.08        3334.75           6628          82.00       323.89
  158.11        3335.00           6632          80.00       315.17
  158.14        3335.25           6635         110.00       445.95
  158.17        3335.50           6639         185.00       772.90
  158.20        3335.75           6643         510.00      2189.76
  158.23        3336.00           6646         840.00      3628.53
  158.26        3336.25           6650        1582.00      6864.00
  158.29        3336.50           6654        2627.00     11421.70
  158.32        3336.75           6658        4046.00     17612.43
  158.35        3337.00           6661        5185.00     22583.15
  158.38        3337.25           6665        6953.00     30301.64
  158.42        3337.50           6669        8644.00     37687.09
  158.45        3337.75           6673       10502.00     45805.44
  158.48        3338.00           6676       12003.00     52366.62
  158.51        3338.25           6680       13907.00     60692.86
  158.54        3338.50           6684       15690.00     68493.48
  158.57        3338.75           6688       17483.00     76341.31
  158.60        3339.00           6691       18670.00     81538.61
  158.63        3339.25           6695       20744.00     90623.31
  158.66        3339.50           6699       22424.00     97985.56
  158.69        3339.75           6702       24014.00    104956.20
  158.72        3340.00           6706       25637.00    112074.30
  158.75        3340.25           6710       27759.00    121385.30
  158.78        3340.50           6714       29440.00    128764.60
  158.81        3340.75           6717       30613.00    133915.80
  158.85        3341.00           6721       31930.00    139701.00
  158.88        3341.25           6725       32633.00    142789.90
  158.91        3341.50           6729       33193.00    145250.80
  158.94        3341.75           6732       32936.00    144121.40
  158.97        3342.00           6736       32139.00    140619.30
  159.00        3342.25           6740       31207.00    136524.80
  159.03        3342.50           6744       29808.00    130380.50
  159.06        3342.75           6747       28592.00    125041.60
  159.09        3343.00           6751       27093.00    118462.50
  159.13        3343.25           6755       25190.00    110113.60
  159.16        3343.50           6759       23427.00    102382.40
  159.19        3343.75           6762       21985.00     96061.43
  159.22        3344.00           6766       19963.00     87201.77
  159.25        3344.25           6770       17911.00     78215.13
  159.28        3344.50           6773       16363.00     71438.75
  159.31        3344.75           6777       14253.00     62206.34
  159.34        3345.00           6781       12233.00     53372.21
  159.37        3345.25           6785       10252.00     44712.88
  159.40        3345.50           6788        8864.00     38648.17
  159.44        3345.75           6792        6893.00     30039.64
  159.47        3346.00           6796        5253.00     22879.96
  159.50        3346.25           6800        3869.00     16840.11
  159.53        3346.50           6803        2844.00     12368.28
  159.56        3346.75           6807        1771.00      7688.23
  159.59        3347.00           6811        1007.00      4356.68
  159.62        3347.25           6815         508.00      2181.04
  159.65        3347.50           6818         314.00      1335.27
  159.68        3347.75           6822         169.00       703.15
  159.71        3348.00           6826         104.00       419.80
  159.74        3348.25           6830          78.00       306.45
  159.77        3348.50           6833          92.00       367.48
  159.80        3348.75           6837          73.00       284.66
  159.83        3349.00           6841          76.00       297.74
  159.86        3349.25           6845          80.00       315.17
  159.89        3349.50           6848          68.00       262.86
  159.92        3349.75           6852          71.00       275.94
  159.95        3350.00           6856          74.00       289.02
  159.98        3350.25           6860          80.00       315.17
  160.02        3350.50           6863          72.00       280.30
  160.05        3350.75           6867          74.00       289.02
  160.08        3351.00           6871          76.00       297.74
HL scan finished at 02:40:43
end
************************************************************
  HL Scan of (1) Internal mercury lamp
************************************************************
Integration time is 0.2294 seconds per sample
dh250619El Arenosillo 37.1 6.73 3.126073pr1000
************************************************************
Dead Time -------------------------  2.8E-08 
Number of Cycles Used -------------  4 
Starting Wavelength (Angstroms) ---  3331 
Final Wavelength (Angstoms) -------  3351 
Wavelength Increment (Angstroms) --  .25 
Filter Wheel #1 Position ---------- (1) Ground quartz diffuser (ND=2.32)
Filter Wheel #2 Position ---------- 



************************************************************
HL scan start time = 20:43:34
Dark Count =  4 


Time (GMT)  Wavelength (Ang)  Step Number  Raw Counts  Counts/Second

 1244.09        3331.00           6572          70.00       287.71
 1244.31        3331.25           6576          69.00       283.35
 1244.34        3331.50           6579          65.00       265.91
 1244.37        3331.75           6583          72.00       296.43
 1244.40        3332.00           6587          68.00       278.99
 1244.44        3332.25           6591          65.00       265.91
 1244.47        3332.50           6594          69.00       283.35
 1244.50        3332.75           6598          73.00       300.79
 1244.53        3333.00           6602          78.00       322.58
 1244.56        3333.25           6605          65.00       265.91
 1244.59        3333.50           6609          72.00       296.43
 1244.62        3333.75           6613          71.00       292.07
 1244.65        3334.00           6617          74.00       305.15
 1244.68        3334.25           6620          70.00       287.71
 1244.71        3334.50           6624          78.00       322.58
 1244.74        3334.75           6628          83.00       344.38
 1244.77        3335.00           6632          87.00       361.82
 1244.81        3335.25           6635         107.00       449.00
 1244.84        3335.50           6639         161.00       684.41
 1244.87        3335.75           6643         425.00      1835.32
 1244.90        3336.00           6646         815.00      3535.66
 1244.93        3336.25           6650        1569.00      6823.45
 1244.96        3336.50           6654        2606.00     11346.24
 1244.99        3336.75           6658        3962.00     17262.05
 1245.02        3337.00           6661        5128.00     22350.51
 1245.05        3337.25           6665        7055.00     30763.19
 1245.08        3337.50           6669        9126.00     39808.96
 1245.11        3337.75           6673       11281.00     49226.48
 1245.14        3338.00           6676       12894.00     56278.68
 1245.18        3338.25           6680       14981.00     65407.39
 1245.21        3338.50           6684       16817.00     73442.06
 1245.24        3338.75           6688       18723.00     81786.91
 1245.27        3339.00           6691       20182.00     88177.34
 1245.30        3339.25           6695       21948.00     95915.49
 1245.34        3339.50           6699       23729.00    103722.80
 1245.37        3339.75           6702       25170.00    110042.10
 1245.40        3340.00           6706       27123.00    118610.40
 1245.43        3340.25           6710       28967.00    126704.20
 1245.46        3340.50           6714       30995.00    135609.90
 1245.49        3340.75           6717       32340.00    141518.70
 1245.53        3341.00           6721       33702.00    147504.20
 1245.56        3341.25           6725       34571.00    151324.20
 1245.59        3341.50           6729       35127.00    153768.70
 1245.62        3341.75           6732       35064.00    153491.80
 1245.65        3342.00           6736       34394.00    150546.10
 1245.68        3342.25           6740       33547.00    146822.90
 1245.71        3342.50           6744       32070.00    140332.40
 1245.74        3342.75           6747       30925.00    135302.40
 1245.77        3343.00           6751       29297.00    128153.00
 1245.80        3343.25           6755       27233.00    119093.10
 1245.84        3343.50           6759       25135.00    109888.60
 1245.87        3343.75           6762       23603.00    103170.30
 1245.90        3344.00           6766       21348.00     93286.07
 1245.93        3344.25           6770       19206.00     83902.19
 1245.96        3344.50           6773       17536.00     76589.53
 1246.00        3344.75           6777       15652.00     68343.40
 1246.03        3345.00           6781       13495.00     58907.03
 1246.06        3345.25           6785       11558.00     50437.36
 1246.09        3345.50           6788        9962.00     43461.76
 1246.12        3345.75           6792        8095.00     35305.16
 1246.15        3346.00           6796        6003.00     26170.00
 1246.18        3346.25           6800        4364.00     19016.23
 1246.21        3346.50           6803        3226.00     14050.86
 1246.24        3346.75           6807        2068.00      8999.65
 1246.27        3347.00           6811        1179.00      5122.79
 1246.30        3347.25           6815         618.00      2676.75
 1246.34        3347.50           6818         384.00      1656.57
 1246.37        3347.75           6822         204.00       871.86
 1246.40        3348.00           6826         113.00       475.16
 1246.43        3348.25           6830          89.00       370.54
 1246.46        3348.50           6833          76.00       313.87
 1246.49        3348.75           6837          68.00       278.99
 1246.52        3349.00           6841          72.00       296.43
 1246.55        3349.25           6845          75.00       309.51
 1246.58        3349.50           6848          81.00       335.66
 1246.62        3349.75           6852          73.00       300.79
 1246.65        3350.00           6856          77.00       318.22
 1246.68        3350.25           6860          74.00       305.15
 1246.71        3350.50           6863          74.00       305.15
 1246.74        3350.75           6867          76.00       313.87
 1246.77        3351.00           6871          82.00       340.02
HL scan finished at 20:47:25
end
