************************************************************
  HL Scan of (1) Internal mercury lamp
************************************************************
Integration time is 0.2294 seconds per sample
dh220619El Arenosillo 37.1 6.73 3.072425pr1000
************************************************************
Dead Time -------------------------  2.8E-08 
Number of Cycles Used -------------  4 
Starting Wavelength (Angstroms) ---  3331 
Final Wavelength (Angstoms) -------  3351 
Wavelength Increment (Angstroms) --  .25 
Filter Wheel #1 Position ---------- (1) Ground quartz diffuser (ND=2.32)
Filter Wheel #2 Position ---------- 



************************************************************
HL scan start time = 01:14:35
Dark Count =  7.8 


Time (GMT)  Wavelength (Ang)  Step Number  Raw Counts  Counts/Second

   75.09        3331.00           6572          75.00       292.94
   75.31        3331.25           6576          71.00       275.50
   75.34        3331.50           6579          65.00       249.35
   75.37        3331.75           6583          70.00       271.14
   75.41        3332.00           6587          70.00       271.14
   75.44        3332.25           6591          66.00       253.71
   75.47        3332.50           6594          72.00       279.86
   75.50        3332.75           6598          72.00       279.86
   75.53        3333.00           6602          76.00       297.30
   75.56        3333.25           6605          74.00       288.58
   75.60        3333.50           6609          77.00       301.66
   75.63        3333.75           6613          74.00       288.58
   75.66        3334.00           6617          75.00       292.94
   75.69        3334.25           6620          73.00       284.22
   75.72        3334.50           6624          74.00       288.58
   75.76        3334.75           6628          79.00       310.38
   75.79        3335.00           6632          89.00       353.97
   75.82        3335.25           6635         108.00       436.80
   75.85        3335.50           6639         144.00       593.73
   75.88        3335.75           6643         356.00      1517.94
   75.91        3336.00           6646         662.00      2852.02
   75.95        3336.25           6650        1297.00      5620.76
   75.98        3336.50           6654        2153.00      9353.80
   76.01        3336.75           6658        3425.00     14902.47
   76.05        3337.00           6661        4592.00     19994.63
   76.08        3337.25           6665        6461.00     28152.96
   76.11        3337.50           6669        8441.00     36799.89
   76.14        3337.75           6673       10564.00     46075.97
   76.17        3338.00           6676       12196.00     53209.99
   76.21        3338.25           6680       14358.00     62665.23
   76.24        3338.50           6684       16566.00     72326.79
   76.27        3338.75           6688       18738.00     81835.96
   76.30        3339.00           6691       20246.00     88441.06
   76.33        3339.25           6695       22124.00     96670.21
   76.37        3339.50           6699       24020.00    104982.10
   76.40        3339.75           6702       25425.00    111144.00
   76.43        3340.00           6706       26975.00    117944.20
   76.46        3340.25           6710       28931.00    126529.40
   76.49        3340.50           6714       30939.00    135347.20
   76.52        3340.75           6717       32307.00    141357.00
   76.56        3341.00           6721       33796.00    147900.70
   76.59        3341.25           6725       35061.00    153461.90
   76.62        3341.50           6729       35593.00    155801.10
   76.65        3341.75           6732       35952.00    157379.90
   76.68        3342.00           6736       35441.00    155132.70
   76.72        3342.25           6740       34552.00    151224.00
   76.75        3342.50           6744       33204.00    145298.70
   76.78        3342.75           6747       32040.00    140183.90
   76.81        3343.00           6751       30252.00    132329.90
   76.84        3343.25           6755       28448.00    124409.10
   76.88        3343.50           6759       26347.00    115188.70
   76.91        3343.75           6762       24796.00    108385.10
   76.94        3344.00           6766       22674.00     99080.96
   76.97        3344.25           6770       20261.00     88506.77
   77.00        3344.50           6773       18802.00     82116.23
   77.03        3344.75           6777       16515.00     72103.57
   77.07        3345.00           6781       14340.00     62586.48
   77.10        3345.25           6785       12309.00     53704.07
   77.13        3345.50           6788       10699.00     46665.99
   77.16        3345.75           6792        8740.00     38106.03
   77.19        3346.00           6796        6738.00     29362.41
   77.23        3346.25           6800        4950.00     21557.04
   77.26        3346.50           6803        3901.00     16979.30
   77.29        3346.75           6807        2662.00     11573.93
   77.32        3347.00           6811        1600.00      6942.06
   77.35        3347.25           6815         820.00      3540.89
   77.39        3347.50           6818         505.00      2167.53
   77.42        3347.75           6822         244.00      1029.67
   77.45        3348.00           6826         141.00       580.65
   77.48        3348.25           6830          94.00       375.77
   77.51        3348.50           6833          89.00       353.97
   77.55        3348.75           6837          80.00       314.74
   77.58        3349.00           6841          77.00       301.66
   77.61        3349.25           6845          78.00       306.02
   77.64        3349.50           6848          70.00       271.14
   77.67        3349.75           6852          81.00       319.10
   77.70        3350.00           6856          67.00       258.07
   77.74        3350.25           6860          88.00       349.61
   77.77        3350.50           6863          74.00       288.58
   77.80        3350.75           6867          77.00       301.66
   77.83        3351.00           6871          75.00       292.94
HL scan finished at 01:18:28
end
