************************************************************
  HL Scan of (1) Internal mercury lamp
************************************************************
Integration time is 0.2294 seconds per sample
dh190619El Arenosillo 37.1 6.73 3.018777pr1000
************************************************************
Dead Time -------------------------  2.8E-08 
Number of Cycles Used -------------  4 
Starting Wavelength (Angstroms) ---  3331 
Final Wavelength (Angstoms) -------  3351 
Wavelength Increment (Angstroms) --  .25 
Filter Wheel #1 Position ---------- (1) Ground quartz diffuser (ND=2.32)
Filter Wheel #2 Position ---------- 



************************************************************
HL scan start time = 02:35:47
Dark Count =  6.1 


Time (GMT)  Wavelength (Ang)  Step Number  Raw Counts  Counts/Second

  156.30        3331.00           6572          65.00       256.76
  156.52        3331.25           6576          77.00       309.07
  156.55        3331.50           6579          67.00       265.48
  156.58        3331.75           6583          80.00       322.15
  156.61        3332.00           6587          63.00       248.04
  156.64        3332.25           6591          63.00       248.04
  156.67        3332.50           6594          68.00       269.84
  156.70        3332.75           6598          77.00       309.07
  156.73        3333.00           6602          75.00       300.35
  156.76        3333.25           6605          64.00       252.40
  156.79        3333.50           6609          62.00       243.68
  156.82        3333.75           6613          76.00       304.71
  156.85        3334.00           6617          63.00       248.04
  156.88        3334.25           6620          67.00       265.48
  156.91        3334.50           6624          68.00       269.84
  156.95        3334.75           6628          80.00       322.15
  156.98        3335.00           6632          82.00       330.87
  157.01        3335.25           6635         106.00       435.49
  157.04        3335.50           6639         182.00       766.80
  157.07        3335.75           6643         461.00      1983.11
  157.10        3336.00           6646         822.00      3557.02
  157.13        3336.25           6650        1534.00      6661.66
  157.16        3336.50           6654        2564.00     11153.88
  157.19        3336.75           6658        3973.00     17300.88
  157.22        3337.00           6661        5036.00     21939.81
  157.25        3337.25           6665        6741.00     29382.93
  157.28        3337.50           6669        8612.00     37554.29
  157.31        3337.75           6673       10658.00     46494.23
  157.34        3338.00           6676       12095.00     52775.84
  157.37        3338.25           6680       14155.00     61784.66
  157.40        3338.50           6684       16207.00     70763.00
  157.43        3338.75           6688       17742.00     77482.22
  157.46        3339.00           6691       19219.00     83949.93
  157.49        3339.25           6695       20875.00     91204.29
  157.52        3339.50           6699       22440.00     98062.71
  157.55        3339.75           6702       23868.00    104323.00
  157.58        3340.00           6706       25457.00    111291.80
  157.62        3340.25           6710       27137.00    118662.60
  157.64        3340.50           6714       28915.00    126466.70
  157.68        3340.75           6717       29870.00    130659.80
  157.70        3341.00           6721       31431.00    137515.90
  157.73        3341.25           6725       32061.00    140283.60
  157.77        3341.50           6729       32612.00    142704.70
  157.80        3341.75           6732       32400.00    141773.10
  157.83        3342.00           6736       31824.00    139242.40
  157.86        3342.25           6740       30754.00    134542.10
  157.89        3342.50           6744       29519.00    129118.50
  157.92        3342.75           6747       28336.00    123924.90
  157.95        3343.00           6751       26576.00    116200.90
  157.98        3343.25           6755       24874.00    108734.70
  158.01        3343.50           6759       23235.00    101547.70
  158.04        3343.75           6762       21537.00     94105.10
  158.07        3344.00           6766       19581.00     85535.49
  158.10        3344.25           6770       17576.00     76755.46
  158.13        3344.50           6773       16055.00     70097.79
  158.16        3344.75           6777       13994.00     61080.40
  158.20        3345.00           6781       12134.00     52946.35
  158.23        3345.25           6785       10247.00     44698.02
  158.26        3345.50           6788        8952.00     39039.61
  158.29        3345.75           6792        7243.00     31574.99
  158.32        3346.00           6796        5591.00     24362.30
  158.35        3346.25           6800        4021.00     17510.33
  158.38        3346.50           6803        2963.00     12894.37
  158.41        3346.75           6807        1802.00      7830.40
  158.44        3347.00           6811        1041.00      4511.90
  158.47        3347.25           6815         535.00      2305.73
  158.50        3347.50           6818         295.00      1259.42
  158.53        3347.75           6822         163.00       683.97
  158.56        3348.00           6826         109.00       448.57
  158.59        3348.25           6830          77.00       309.07
  158.62        3348.50           6833          70.00       278.55
  158.65        3348.75           6837          68.00       269.84
  158.68        3349.00           6841          65.00       256.76
  158.71        3349.25           6845          70.00       278.55
  158.75        3349.50           6848          74.00       295.99
  158.78        3349.75           6852          70.00       278.55
  158.81        3350.00           6856          72.00       287.27
  158.83        3350.25           6860          72.00       287.27
  158.87        3350.50           6863          77.00       309.07
  158.90        3350.75           6867          73.00       291.63
  158.93        3351.00           6871          69.00       274.20
HL scan finished at 02:39:34
end
