************************************************************
  HL Scan of (1) Internal mercury lamp
************************************************************
Integration time is 0.2294 seconds per sample
dh240619El Arenosillo 37.1 6.73 2.965129pr1000
************************************************************
Dead Time -------------------------  2.8E-08 
Number of Cycles Used -------------  4 
Starting Wavelength (Angstroms) ---  3331 
Final Wavelength (Angstoms) -------  3351 
Wavelength Increment (Angstroms) --  .25 
Filter Wheel #1 Position ---------- (1) Ground quartz diffuser (ND=2.32)
Filter Wheel #2 Position ---------- 



************************************************************
HL scan start time = 02:27:18
Dark Count =  9.100001 


Time (GMT)  Wavelength (Ang)  Step Number  Raw Counts  Counts/Second

  147.81        3331.00           6572          67.00       252.40
  148.04        3331.25           6576          68.00       256.76
  148.07        3331.50           6579          68.00       256.76
  148.10        3331.75           6583          67.00       252.40
  148.13        3332.00           6587          70.00       265.48
  148.16        3332.25           6591          62.00       230.60
  148.19        3332.50           6594          66.00       248.04
  148.22        3332.75           6598          75.00       287.27
  148.25        3333.00           6602          71.00       269.84
  148.28        3333.25           6605          78.00       300.35
  148.31        3333.50           6609          71.00       269.84
  148.34        3333.75           6613          67.00       252.40
  148.37        3334.00           6617          66.00       248.04
  148.40        3334.25           6620          71.00       269.84
  148.43        3334.50           6624          76.00       291.63
  148.46        3334.75           6628          73.00       278.55
  148.49        3335.00           6632          89.00       348.30
  148.52        3335.25           6635         102.00       404.97
  148.55        3335.50           6639         176.00       727.56
  148.58        3335.75           6643         461.00      1970.03
  148.61        3336.00           6646         805.00      3469.82
  148.64        3336.25           6650        1433.00      6208.14
  148.67        3336.50           6654        2367.00     10281.51
  148.71        3336.75           6658        3534.00     15372.35
  148.74        3337.00           6661        4526.00     19700.93
  148.77        3337.25           6665        6088.00     26518.81
  148.80        3337.50           6669        7906.00     34457.38
  148.83        3337.75           6673        9785.00     42666.03
  148.86        3338.00           6676       11079.00     48321.22
  148.89        3338.25           6680       13019.00     56803.01
  148.92        3338.50           6684       15019.00     65551.34
  148.95        3338.75           6688       16852.00     73572.95
  148.98        3339.00           6691       18283.00     79837.82
  149.01        3339.25           6695       19986.00     87296.38
  149.04        3339.50           6699       21710.00     94850.09
  149.07        3339.75           6702       23243.00    101569.60
  149.10        3340.00           6706       24851.00    108620.60
  149.13        3340.25           6710       26704.00    116749.40
  149.17        3340.50           6714       28273.00    123635.20
  149.20        3340.75           6717       29364.00    128424.80
  149.23        3341.00           6721       30494.00    133387.00
  149.26        3341.25           6725       31162.00    136321.00
  149.29        3341.50           6729       31483.00    137731.10
  149.32        3341.75           6732       31750.00    138904.10
  149.35        3342.00           6736       31229.00    136615.30
  149.38        3342.25           6740       30063.00    131494.20
  149.41        3342.50           6744       28940.00    126563.20
  149.44        3342.75           6747       27792.00    121524.00
  149.47        3343.00           6751       26290.00    114932.90
  149.50        3343.25           6755       24537.00    107243.50
  149.53        3343.50           6759       22611.00     98799.09
  149.56        3343.75           6762       21071.00     92049.94
  149.59        3344.00           6766       19000.00     82977.66
  149.62        3344.25           6770       17059.00     74479.05
  149.66        3344.50           6773       15456.00     67463.41
  149.69        3344.75           6777       13488.00     58854.10
  149.72        3345.00           6781       11536.00     50318.89
  149.75        3345.25           6785        9691.00     42255.29
  149.78        3345.50           6788        8478.00     36955.84
  149.81        3345.75           6792        6834.00     29775.91
  149.84        3346.00           6796        5268.00     22939.32
  149.87        3346.25           6800        3862.00     16803.46
  149.90        3346.50           6803        2914.00     12667.53
  149.93        3346.75           6807        1857.00      8057.18
  149.96        3347.00           6811        1096.00      4738.64
  149.99        3347.25           6815         603.00      2589.12
  150.02        3347.50           6818         366.00      1555.87
  150.05        3347.75           6822         185.00       766.80
  150.08        3348.00           6826         108.00       431.13
  150.11        3348.25           6830          79.00       304.71
  150.14        3348.50           6833          75.00       287.27
  150.17        3348.75           6837          70.00       265.48
  150.20        3349.00           6841          70.00       265.48
  150.23        3349.25           6845          75.00       287.27
  150.26        3349.50           6848          70.00       265.48
  150.30        3349.75           6852          65.00       243.68
  150.33        3350.00           6856          64.00       239.32
  150.36        3350.25           6860          65.00       243.68
  150.39        3350.50           6863          68.00       256.76
  150.42        3350.75           6867          74.00       282.91
  150.45        3351.00           6871          71.00       269.84
HL scan finished at 02:31:05
end
************************************************************
  HL Scan of (1) Internal mercury lamp
************************************************************
Integration time is 0.2294 seconds per sample
dh240619El Arenosillo 37.1 6.73 3.072425pr1000
************************************************************
Dead Time -------------------------  2.8E-08 
Number of Cycles Used -------------  4 
Starting Wavelength (Angstroms) ---  3331 
Final Wavelength (Angstoms) -------  3351 
Wavelength Increment (Angstroms) --  .25 
Filter Wheel #1 Position ---------- (1) Ground quartz diffuser (ND=2.32)
Filter Wheel #2 Position ---------- 



************************************************************
HL scan start time = 21:47:47
Dark Count =  6.2 


Time (GMT)  Wavelength (Ang)  Step Number  Raw Counts  Counts/Second

 1308.29        3331.00           6572          69.00       273.76
 1308.52        3331.25           6576          71.00       282.48
 1308.55        3331.50           6579          71.00       282.48
 1308.58        3331.75           6583          62.00       243.24
 1308.61        3332.00           6587          62.00       243.24
 1308.64        3332.25           6591          65.00       256.32
 1308.67        3332.50           6594          68.00       269.40
 1308.70        3332.75           6598          65.00       256.32
 1308.74        3333.00           6602          74.00       295.56
 1308.77        3333.25           6605          66.00       260.68
 1308.80        3333.50           6609          72.00       286.84
 1308.83        3333.75           6613          63.00       247.60
 1308.86        3334.00           6617          76.00       304.27
 1308.89        3334.25           6620          74.00       295.56
 1308.92        3334.50           6624          70.00       278.12
 1308.95        3334.75           6628          84.00       339.15
 1308.98        3335.00           6632          92.00       374.02
 1309.02        3335.25           6635         103.00       421.98
 1309.05        3335.50           6639         196.00       827.39
 1309.08        3335.75           6643         461.00      1982.67
 1309.11        3336.00           6646         761.00      3290.63
 1309.14        3336.25           6650        1397.00      6063.80
 1309.17        3336.50           6654        2322.00     10097.89
 1309.20        3336.75           6658        3475.00     15127.59
 1309.23        3337.00           6661        4544.00     19792.13
 1309.26        3337.25           6665        6185.00     26954.95
 1309.30        3337.50           6669        7954.00     34679.69
 1309.33        3337.75           6673        9762.00     42578.20
 1309.36        3338.00           6676       11005.00     48010.44
 1309.39        3338.25           6680       13054.00     56968.74
 1309.42        3338.50           6684       14986.00     65419.64
 1309.45        3338.75           6688       17009.00     74272.88
 1309.49        3339.00           6691       18599.00     81234.27
 1309.52        3339.25           6695       20275.00     88575.12
 1309.55        3339.50           6699       22164.00     96852.54
 1309.58        3339.75           6702       23589.00    103099.30
 1309.61        3340.00           6706       25459.00    111300.10
 1309.64        3340.25           6710       27046.00    118262.80
 1309.67        3340.50           6714       29141.00    127458.40
 1309.70        3340.75           6717       30016.00    131300.50
 1309.73        3341.00           6721       31324.00    137045.40
 1309.76        3341.25           6725       32360.00    141596.90
 1309.80        3341.50           6729       32595.00    142629.50
 1309.83        3341.75           6732       32566.00    142502.10
 1309.86        3342.00           6736       32273.00    141214.60
 1309.89        3342.25           6740       31364.00    137221.10
 1309.92        3342.50           6744       30274.00    132433.50
 1309.95        3342.75           6747       29035.00    126993.10
 1309.98        3343.00           6751       27419.00    119899.70
 1310.02        3343.25           6755       25640.00    112094.10
 1310.05        3343.50           6759       23603.00    103160.70
 1310.08        3343.75           6762       22251.00     97233.86
 1310.11        3344.00           6766       20167.00     88101.99
 1310.14        3344.25           6770       17971.00     78484.41
 1310.17        3344.50           6773       16407.00     71637.88
 1310.20        3344.75           6777       14389.00     62807.83
 1310.24        3345.00           6781       12321.00     53763.53
 1310.27        3345.25           6785       10274.00     44815.57
 1310.30        3345.50           6788        8713.00     37995.06
 1310.33        3345.75           6792        7086.00     30888.95
 1310.36        3346.00           6796        5458.00     23781.31
 1310.39        3346.25           6800        4052.00     17645.16
 1310.42        3346.50           6803        3072.00     13369.43
 1310.46        3346.75           6807        1956.00      8501.59
 1310.49        3347.00           6811        1165.00      5052.15
 1310.52        3347.25           6815         642.00      2771.79
 1310.55        3347.50           6818         392.00      1681.86
 1310.58        3347.75           6822         215.00       910.22
 1310.61        3348.00           6826         116.00       478.65
 1310.65        3348.25           6830          83.00       334.79
 1310.68        3348.50           6833          81.00       326.07
 1310.71        3348.75           6837          73.00       291.20
 1310.74        3349.00           6841          74.00       295.56
 1310.77        3349.25           6845          76.00       304.27
 1310.80        3349.50           6848          68.00       269.40
 1310.83        3349.75           6852          73.00       291.20
 1310.86        3350.00           6856          80.00       321.71
 1310.89        3350.25           6860          77.00       308.63
 1310.93        3350.50           6863          70.00       278.12
 1310.96        3350.75           6867          83.00       334.79
 1310.99        3351.00           6871          69.00       273.76
HL scan finished at 21:51:38
end
