************************************************************
  HS Scan of (1) Internal mercury lamp
************************************************************
Integration time is 0.2294 seconds per sample
dh180619El Arenosillo 37.1 6.73 3.018777pr1000
************************************************************
Dead Time -------------------------  2.8E-08 
Number of Cycles Used -------------  4 
Starting Wavelength (Angstroms) ---  2950 
Final Wavelength (Angstoms) -------  2984 
Wavelength Increment (Angstroms) --  .25 
Filter Wheel #1 Position ---------- (1) Ground quartz diffuser (ND=2.32)
Filter Wheel #2 Position ---------- (1) Neutral Density 0.494



************************************************************
HS scan start time = 21:54:03
Dark Count =  5.5 


Time (GMT)  Wavelength (Ang)  Step Number  Raw Counts  Counts/Second

 1314.42        2950.00           1238          38.00       141.67
 1314.48        2950.25           1242          45.00       172.19
 1314.51        2950.50           1245          37.00       137.32
 1314.55        2950.75           1248          40.00       150.39
 1314.57        2951.00           1252          41.00       154.75
 1314.60        2951.25           1255          39.00       146.03
 1314.64        2951.50           1258          35.00       128.60
 1314.67        2951.75           1261          39.00       146.03
 1314.70        2952.00           1265          40.00       150.39
 1314.73        2952.25           1268          42.00       159.11
 1314.76        2952.50           1271          44.00       167.83
 1314.79        2952.75           1275          43.00       163.47
 1314.82        2953.00           1278          42.00       159.11
 1314.85        2953.25           1281          34.00       124.24
 1314.88        2953.50           1285          47.00       180.91
 1314.91        2953.75           1288          43.00       163.47
 1314.94        2954.00           1291          46.00       176.55
 1314.97        2954.25           1295          41.00       154.75
 1315.00        2954.50           1298          43.00       163.47
 1315.03        2954.75           1301          45.00       172.19
 1315.06        2955.00           1304          50.00       193.99
 1315.10        2955.25           1308          34.00       124.24
 1315.13        2955.50           1311          40.00       150.39
 1315.16        2955.75           1314          41.00       154.75
 1315.19        2956.00           1318          44.00       167.83
 1315.22        2956.25           1321          40.00       150.39
 1315.25        2956.50           1324          43.00       163.47
 1315.28        2956.75           1328          44.00       167.83
 1315.31        2957.00           1331          38.00       141.67
 1315.34        2957.25           1334          43.00       163.47
 1315.37        2957.50           1338          45.00       172.19
 1315.40        2957.75           1341          43.00       163.47
 1315.43        2958.00           1344          39.00       146.03
 1315.46        2958.25           1347          42.00       159.11
 1315.50        2958.50           1351          41.00       154.75
 1315.53        2958.75           1354          52.00       202.70
 1315.55        2959.00           1357          49.00       189.63
 1315.59        2959.25           1361          49.00       189.63
 1315.62        2959.50           1364          56.00       220.14
 1315.65        2959.75           1367          55.00       215.78
 1315.68        2960.00           1371          73.00       294.25
 1315.71        2960.25           1374          73.00       294.25
 1315.74        2960.50           1377          84.00       342.20
 1315.77        2960.75           1381         162.00       682.23
 1315.80        2961.00           1384         369.00      1584.64
 1315.83        2961.25           1387         866.00      3751.48
 1315.86        2961.50           1390        1626.00      7065.48
 1315.89        2961.75           1394        3151.00     13717.13
 1315.93        2962.00           1397        4546.00     19803.92
 1315.96        2962.25           1400        6112.00     26639.31
 1315.99        2962.50           1404        8415.00     36696.36
 1316.02        2962.75           1407       10275.00     44823.01
 1316.05        2963.00           1410       11912.00     51978.39
 1316.08        2963.25           1414       14324.00     62526.55
 1316.11        2963.50           1417       16200.00     70735.00
 1316.14        2963.75           1420       17854.00     77975.21
 1316.17        2964.00           1424       20344.00     88880.46
 1316.20        2964.25           1427       21927.00     95816.88
 1316.23        2964.50           1430       23618.00    103229.50
 1316.26        2964.75           1434       25999.00    113672.00
 1316.29        2965.00           1437       27767.00    121430.00
 1316.33        2965.25           1440       29419.00    128682.10
 1316.36        2965.50           1444       31739.00    138871.60
 1316.39        2965.75           1447       33108.00    144886.90
 1316.42        2966.00           1450       34624.00    151550.60
 1316.45        2966.25           1453       35780.00    156633.60
 1316.48        2966.50           1457       36847.00    161326.50
 1316.51        2966.75           1460       37464.00    164040.80
 1316.54        2967.00           1463       37597.00    164625.90
 1316.57        2967.25           1467       37697.00    165065.90
 1316.60        2967.50           1470       37135.00    162593.40
 1316.63        2967.75           1473       36644.00    160433.60
 1316.67        2968.00           1477       35112.00    153696.20
 1316.70        2968.25           1480       33873.00    148249.20
 1316.73        2968.50           1483       32096.00    140440.00
 1316.76        2968.75           1487       29863.00    130631.70
 1316.79        2969.00           1490       28093.00    122860.90
 1316.82        2969.25           1493       26128.00    114238.00
 1316.85        2969.50           1497       23781.00    103944.20
 1316.88        2969.75           1500       21875.00     95588.99
 1316.91        2970.00           1503       20297.00     88674.56
 1316.94        2970.25           1507       17751.00     77524.25
 1316.97        2970.50           1510       16398.00     71601.56
 1317.01        2970.75           1513       14617.00     63808.33
 1317.04        2971.00           1517       12680.00     55336.33
 1317.07        2971.25           1520       11030.00     48122.78
 1317.10        2971.50           1523        9305.00     40584.46
 1317.13        2971.75           1526        7481.00     32616.96
 1317.16        2972.00           1530        5203.00     22671.32
 1317.19        2972.25           1533        3678.00     16016.34
 1317.22        2972.50           1536        2580.00     11226.28
 1317.25        2972.75           1540        1436.00      6236.92
 1317.28        2973.00           1543         821.00      3555.28
 1317.31        2973.25           1546         448.00      1929.05
 1317.35        2973.50           1550         199.00       843.52
 1317.38        2973.75           1553         106.00       438.10
 1317.41        2974.00           1556          76.00       307.33
 1317.44        2974.25           1560          40.00       150.39
 1317.47        2974.50           1563          58.00       228.86
 1317.50        2974.75           1566          49.00       189.63
 1317.53        2975.00           1570          43.00       163.47
 1317.56        2975.25           1573          43.00       163.47
 1317.59        2975.50           1576          36.00       132.96
 1317.62        2975.75           1580          41.00       154.75
 1317.65        2976.00           1583          45.00       172.19
 1317.69        2976.25           1586          47.00       180.91
 1317.72        2976.50           1590          49.00       189.63
 1317.75        2976.75           1593          44.00       167.83
 1317.78        2977.00           1596          45.00       172.19
 1317.81        2977.25           1600          46.00       176.55
 1317.84        2977.50           1603          40.00       150.39
 1317.87        2977.75           1606          39.00       146.03
 1317.90        2978.00           1610          40.00       150.39
 1317.93        2978.25           1613          38.00       141.67
 1317.96        2978.50           1616          36.00       132.96
 1317.99        2978.75           1620          45.00       172.19
 1318.02        2979.00           1623          38.00       141.67
 1318.05        2979.25           1626          40.00       150.39
 1318.09        2979.50           1630          37.00       137.32
 1318.12        2979.75           1633          45.00       172.19
 1318.15        2980.00           1636          40.00       150.39
 1318.18        2980.25           1640          41.00       154.75
 1318.21        2980.50           1643          43.00       163.47
 1318.24        2980.75           1646          40.00       150.39
 1318.27        2981.00           1650          48.00       185.27
 1318.30        2981.25           1653          44.00       167.83
 1318.33        2981.50           1656          41.00       154.75
 1318.36        2981.75           1660          49.00       189.63
 1318.39        2982.00           1663          45.00       172.19
 1318.42        2982.25           1666          37.00       137.32
 1318.45        2982.50           1670          35.00       128.60
 1318.48        2982.75           1673          40.00       150.39
 1318.52        2983.00           1676          42.00       159.11
 1318.55        2983.25           1680          39.00       146.03
 1318.58        2983.50           1683          36.00       132.96
 1318.61        2983.75           1686          45.00       172.19
 1318.64        2984.00           1690          38.00       141.67
HS scan finished at 21:58:51
end
