************************************************************
  HS Scan of (1) Internal mercury lamp
************************************************************
Integration time is 0.2294 seconds per sample
dh200619El Arenosillo 37.1 6.73 2.911481pr1000
************************************************************
Dead Time -------------------------  2.8E-08 
Number of Cycles Used -------------  4 
Starting Wavelength (Angstroms) ---  2950 
Final Wavelength (Angstoms) -------  2984 
Wavelength Increment (Angstroms) --  .25 
Filter Wheel #1 Position ---------- (1) Ground quartz diffuser (ND=2.32)
Filter Wheel #2 Position ---------- (1) Neutral Density 0.494



************************************************************
HS scan start time = 03:45:50
Dark Count =  6.6 


Time (GMT)  Wavelength (Ang)  Step Number  Raw Counts  Counts/Second

  226.19        2950.00           1238          37.00       132.52
  226.26        2950.25           1242          41.00       149.96
  226.29        2950.50           1245          46.00       171.75
  226.32        2950.75           1248          50.00       189.19
  226.35        2951.00           1252          56.00       215.35
  226.38        2951.25           1255          43.00       158.68
  226.41        2951.50           1258          46.00       171.75
  226.44        2951.75           1261          45.00       167.39
  226.47        2952.00           1265          49.00       184.83
  226.50        2952.25           1268          45.00       167.39
  226.53        2952.50           1271          40.00       145.60
  226.56        2952.75           1275          37.00       132.52
  226.59        2953.00           1278          45.00       167.39
  226.62        2953.25           1281          42.00       154.32
  226.65        2953.50           1285          44.00       163.03
  226.68        2953.75           1288          41.00       149.96
  226.71        2954.00           1291          41.00       149.96
  226.74        2954.25           1295          44.00       163.03
  226.77        2954.50           1298          46.00       171.75
  226.80        2954.75           1301          47.00       176.11
  226.83        2955.00           1304          47.00       176.11
  226.86        2955.25           1308          46.00       171.75
  226.89        2955.50           1311          49.00       184.83
  226.92        2955.75           1314          41.00       149.96
  226.95        2956.00           1318          41.00       149.96
  226.99        2956.25           1321          47.00       176.11
  227.02        2956.50           1324          42.00       154.32
  227.05        2956.75           1328          46.00       171.75
  227.08        2957.00           1331          47.00       176.11
  227.11        2957.25           1334          44.00       163.03
  227.14        2957.50           1338          40.00       145.60
  227.17        2957.75           1341          43.00       158.68
  227.20        2958.00           1344          52.00       197.91
  227.23        2958.25           1347          46.00       171.75
  227.26        2958.50           1351          42.00       154.32
  227.29        2958.75           1354          45.00       167.39
  227.32        2959.00           1357          53.00       202.27
  227.35        2959.25           1361          54.00       206.63
  227.38        2959.50           1364          59.00       228.42
  227.41        2959.75           1367          60.00       232.78
  227.44        2960.00           1371          64.00       250.22
  227.47        2960.25           1374          73.00       289.45
  227.50        2960.50           1377          88.00       354.84
  227.53        2960.75           1381         124.00       511.78
  227.56        2961.00           1384         294.00      1252.88
  227.59        2961.25           1387         661.00      2852.89
  227.62        2961.50           1390        1277.00      5538.78
  227.66        2961.75           1394        2485.00     10807.11
  227.69        2962.00           1397        3678.00     16011.54
  227.72        2962.25           1400        5039.00     21950.72
  227.75        2962.50           1404        7199.00     31380.66
  227.78        2962.75           1407        8828.00     38495.70
  227.81        2963.00           1410       10556.00     46046.26
  227.84        2963.25           1414       12451.00     54330.19
  227.87        2963.50           1417       14162.00     61813.09
  227.90        2963.75           1420       15938.00     69583.58
  227.93        2964.00           1424       18205.00     79507.24
  227.96        2964.25           1427       19812.00     86545.12
  227.99        2964.50           1430       21620.00     94466.63
  228.02        2964.75           1434       23847.00    104228.80
  228.05        2965.00           1437       25552.00    111706.30
  228.08        2965.25           1440       27311.00    119424.00
  228.11        2965.50           1444       29920.00    130877.20
  228.14        2965.75           1447       31755.00    138937.00
  228.18        2966.00           1450       32963.00    144244.90
  228.21        2966.25           1453       34309.00    150161.00
  228.24        2966.50           1457       35518.00    155476.60
  228.27        2966.75           1460       36290.00    158871.70
  228.30        2967.00           1463       36509.00    159834.90
  228.33        2967.25           1467       36733.00    160820.20
  228.36        2967.50           1470       36429.00    159483.00
  228.39        2967.75           1473       35863.00    156993.80
  228.42        2968.00           1477       34878.00    152662.50
  228.45        2968.25           1480       33560.00    146868.60
  228.48        2968.50           1483       32249.00    141107.40
  228.51        2968.75           1487       30112.00    131720.30
  228.54        2969.00           1490       28395.00    124181.70
  228.57        2969.25           1493       26625.00    116413.70
  228.60        2969.50           1497       24356.00    106460.70
  228.63        2969.75           1500       22728.00     99322.93
  228.66        2970.00           1503       21140.00     92363.24
  228.69        2970.25           1507       18793.00     82082.08
  228.72        2970.50           1510       17334.00     75693.83
  228.75        2970.75           1513       15814.00     69040.93
  228.79        2971.00           1517       13649.00     59569.20
  228.82        2971.25           1520       11935.00     52074.13
  228.85        2971.50           1523       10337.00     45089.15
  228.88        2971.75           1526        8720.00     38023.90
  228.91        2972.00           1530        6445.00     28088.34
  228.94        2972.25           1533        4826.00     21021.09
  228.97        2972.50           1536        3399.00     14794.27
  229.00        2972.75           1540        1928.00      8377.73
  229.03        2973.00           1543        1154.00      5002.45
  229.06        2973.25           1546         667.00      2879.05
  229.09        2973.50           1550         301.00      1283.39
  229.12        2973.75           1553         155.00       646.92
  229.15        2974.00           1556          86.00       346.12
  229.18        2974.25           1560          57.00       219.70
  229.21        2974.50           1563          52.00       197.91
  229.24        2974.75           1566          50.00       189.19
  229.27        2975.00           1570          54.00       206.63
  229.30        2975.25           1573          42.00       154.32
  229.33        2975.50           1576          43.00       158.68
  229.36        2975.75           1580          45.00       167.39
  229.39        2976.00           1583          47.00       176.11
  229.42        2976.25           1586          42.00       154.32
  229.45        2976.50           1590          52.00       197.91
  229.48        2976.75           1593          50.00       189.19
  229.51        2977.00           1596          49.00       184.83
  229.54        2977.25           1600          45.00       167.39
  229.57        2977.50           1603          45.00       167.39
  229.61        2977.75           1606          44.00       163.03
  229.64        2978.00           1610          41.00       149.96
  229.67        2978.25           1613          44.00       163.03
  229.70        2978.50           1616          43.00       158.68
  229.73        2978.75           1620          38.00       136.88
  229.76        2979.00           1623          46.00       171.75
  229.79        2979.25           1626          45.00       167.39
  229.82        2979.50           1630          44.00       163.03
  229.85        2979.75           1633          46.00       171.75
  229.88        2980.00           1636          45.00       167.39
  229.91        2980.25           1640          49.00       184.83
  229.94        2980.50           1643          46.00       171.75
  229.97        2980.75           1646          39.00       141.24
  230.00        2981.00           1650          43.00       158.68
  230.03        2981.25           1653          38.00       136.88
  230.06        2981.50           1656          44.00       163.03
  230.09        2981.75           1660          37.00       132.52
  230.12        2982.00           1663          39.00       141.24
  230.15        2982.25           1666          49.00       184.83
  230.18        2982.50           1670          48.00       180.47
  230.21        2982.75           1673          41.00       149.96
  230.24        2983.00           1676          46.00       171.75
  230.27        2983.25           1680          42.00       154.32
  230.30        2983.50           1683          44.00       163.03
  230.33        2983.75           1686          48.00       180.47
  230.36        2984.00           1690          46.00       171.75
HS scan finished at 03:50:34
end
************************************************************
  HS Scan of (1) Internal mercury lamp
************************************************************
Integration time is 0.2294 seconds per sample
dh200619El Arenosillo 37.1 6.73 3.018777pr1000
************************************************************
Dead Time -------------------------  2.8E-08 
Number of Cycles Used -------------  4 
Starting Wavelength (Angstroms) ---  2950 
Final Wavelength (Angstoms) -------  2984 
Wavelength Increment (Angstroms) --  .25 
Filter Wheel #1 Position ---------- (1) Ground quartz diffuser (ND=2.32)
Filter Wheel #2 Position ---------- (1) Neutral Density 0.494



************************************************************
HS scan start time = 21:39:51
Dark Count =  7.1 


Time (GMT)  Wavelength (Ang)  Step Number  Raw Counts  Counts/Second

 1300.21        2950.00           1238          41.00       147.78
 1300.27        2950.25           1242          43.00       156.50
 1300.30        2950.50           1245          44.00       160.86
 1300.33        2950.75           1248          42.00       152.14
 1300.36        2951.00           1252          44.00       160.86
 1300.39        2951.25           1255          41.00       147.78
 1300.43        2951.50           1258          41.00       147.78
 1300.46        2951.75           1261          40.00       143.42
 1300.49        2952.00           1265          43.00       156.50
 1300.52        2952.25           1268          48.00       178.29
 1300.55        2952.50           1271          38.00       134.70
 1300.58        2952.75           1275          45.00       165.21
 1300.61        2953.00           1278          41.00       147.78
 1300.64        2953.25           1281          42.00       152.14
 1300.67        2953.50           1285          38.00       134.70
 1300.70        2953.75           1288          47.00       173.93
 1300.73        2954.00           1291          38.00       134.70
 1300.76        2954.25           1295          39.00       139.06
 1300.79        2954.50           1298          40.00       143.42
 1300.82        2954.75           1301          50.00       187.01
 1300.85        2955.00           1304          42.00       152.14
 1300.89        2955.25           1308          41.00       147.78
 1300.92        2955.50           1311          44.00       160.86
 1300.95        2955.75           1314          45.00       165.21
 1300.98        2956.00           1318          42.00       152.14
 1301.01        2956.25           1321          43.00       156.50
 1301.04        2956.50           1324          44.00       160.86
 1301.07        2956.75           1328          41.00       147.78
 1301.10        2957.00           1331          35.00       121.62
 1301.13        2957.25           1334          44.00       160.86
 1301.16        2957.50           1338          33.00       112.90
 1301.19        2957.75           1341          43.00       156.50
 1301.22        2958.00           1344          43.00       156.50
 1301.25        2958.25           1347          43.00       156.50
 1301.28        2958.50           1351          47.00       173.93
 1301.31        2958.75           1354          49.00       182.65
 1301.34        2959.00           1357          52.00       195.73
 1301.37        2959.25           1361          54.00       204.45
 1301.41        2959.50           1364          52.00       195.73
 1301.44        2959.75           1367          66.00       256.76
 1301.47        2960.00           1371          70.00       274.20
 1301.50        2960.25           1374          80.00       317.79
 1301.53        2960.50           1377          96.00       387.54
 1301.56        2960.75           1381         208.00       875.78
 1301.59        2961.00           1384         511.00      2196.73
 1301.62        2961.25           1387        1078.00      4668.88
 1301.65        2961.50           1390        1915.00      8318.85
 1301.68        2961.75           1394        3393.00     14765.91
 1301.71        2962.00           1397        4892.00     21306.95
 1301.74        2962.25           1400        6449.00     28103.63
 1301.77        2962.50           1404        8791.00     38331.88
 1301.81        2962.75           1407       10638.00     46402.45
 1301.84        2963.00           1410       12278.00     53571.58
 1301.87        2963.25           1414       14550.00     63508.22
 1301.90        2963.50           1417       16231.00     70863.66
 1301.93        2963.75           1420       18003.00     78620.58
 1301.96        2964.00           1424       20012.00     87419.03
 1301.99        2964.25           1427       21748.00     95025.38
 1302.02        2964.50           1430       23560.00    102968.20
 1302.05        2964.75           1434       25848.00    113002.60
 1302.08        2965.00           1437       27556.00    120497.00
 1302.11        2965.25           1440       29542.00    129215.10
 1302.14        2965.50           1444       31904.00    139589.40
 1302.17        2965.75           1447       33613.00    147099.40
 1302.20        2966.00           1450       34993.00    153165.90
 1302.24        2966.25           1453       36047.00    157800.70
 1302.27        2966.50           1457       37204.00    162889.90
 1302.30        2966.75           1460       37774.00    165397.60
 1302.33        2967.00           1463       38191.00    167232.40
 1302.36        2967.25           1467       38048.00    166603.20
 1302.39        2967.50           1470       37495.00    164170.10
 1302.42        2967.75           1473       36757.00    160923.60
 1302.45        2968.00           1477       35548.00    155606.30
 1302.48        2968.25           1480       33982.00    148721.40
 1302.51        2968.50           1483       32424.00    141874.20
 1302.54        2968.75           1487       30136.00    131823.50
 1302.57        2969.00           1490       28336.00    123920.50
 1302.60        2969.25           1493       26587.00    116244.80
 1302.63        2969.50           1497       23902.00    104467.70
 1302.67        2969.75           1500       22205.00     97028.30
 1302.70        2970.00           1503       20554.00     89793.49
 1302.73        2970.25           1507       18274.00     79807.18
 1302.76        2970.50           1510       16669.00     72780.69
 1302.79        2970.75           1513       14779.00     64510.06
 1302.82        2971.00           1517       12486.00     54481.04
 1302.85        2971.25           1520       10974.00     47871.02
 1302.88        2971.50           1523        9278.00     40459.51
 1302.92        2971.75           1526        7661.00     33396.08
 1302.95        2972.00           1530        5409.00     23563.49
 1302.98        2972.25           1533        3914.00     17039.08
 1303.01        2972.50           1536        2612.00     11358.89
 1303.04        2972.75           1540        1403.00      6086.04
 1303.07        2973.00           1543         795.00      3434.94
 1303.10        2973.25           1546         427.00      1830.52
 1303.13        2973.50           1550         189.00       792.96
 1303.16        2973.75           1553          99.00       400.61
 1303.19        2974.00           1556          69.00       269.84
 1303.22        2974.25           1560          62.00       239.32
 1303.25        2974.50           1563          47.00       173.93
 1303.28        2974.75           1566          38.00       134.70
 1303.31        2975.00           1570          46.00       169.57
 1303.34        2975.25           1573          38.00       134.70
 1303.37        2975.50           1576          41.00       147.78
 1303.41        2975.75           1580          50.00       187.01
 1303.44        2976.00           1583          42.00       152.14
 1303.47        2976.25           1586          51.00       191.37
 1303.50        2976.50           1590          42.00       152.14
 1303.53        2976.75           1593          43.00       156.50
 1303.56        2977.00           1596          44.00       160.86
 1303.59        2977.25           1600          49.00       182.65
 1303.62        2977.50           1603          47.00       173.93
 1303.65        2977.75           1606          36.00       125.98
 1303.68        2978.00           1610          52.00       195.73
 1303.71        2978.25           1613          40.00       143.42
 1303.74        2978.50           1616          38.00       134.70
 1303.77        2978.75           1620          42.00       152.14
 1303.81        2979.00           1623          41.00       147.78
 1303.84        2979.25           1626          41.00       147.78
 1303.87        2979.50           1630          38.00       134.70
 1303.90        2979.75           1633          35.00       121.62
 1303.93        2980.00           1636          45.00       165.21
 1303.96        2980.25           1640          42.00       152.14
 1303.99        2980.50           1643          45.00       165.21
 1304.02        2980.75           1646          49.00       182.65
 1304.05        2981.00           1650          46.00       169.57
 1304.08        2981.25           1653          39.00       139.06
 1304.11        2981.50           1656          38.00       134.70
 1304.14        2981.75           1660          38.00       134.70
 1304.17        2982.00           1663          40.00       143.42
 1304.20        2982.25           1666          40.00       143.42
 1304.24        2982.50           1670          42.00       152.14
 1304.27        2982.75           1673          48.00       178.29
 1304.30        2983.00           1676          37.00       130.34
 1304.33        2983.25           1680          39.00       139.06
 1304.36        2983.50           1683          42.00       152.14
 1304.39        2983.75           1686          43.00       156.50
 1304.42        2984.00           1690          46.00       169.57
HS scan finished at 21:44:37
end
