************************************************************
  HS Scan of (1) Internal mercury lamp
************************************************************
Integration time is 0.2294 seconds per sample
dh220619El Arenosillo 37.1 6.73 3.072425pr1000
************************************************************
Dead Time -------------------------  2.8E-08 
Number of Cycles Used -------------  4 
Starting Wavelength (Angstroms) ---  2950 
Final Wavelength (Angstoms) -------  2984 
Wavelength Increment (Angstroms) --  .25 
Filter Wheel #1 Position ---------- (1) Ground quartz diffuser (ND=2.32)
Filter Wheel #2 Position ---------- (1) Neutral Density 0.494



************************************************************
HS scan start time = 02:23:29
Dark Count =  5.5 


Time (GMT)  Wavelength (Ang)  Step Number  Raw Counts  Counts/Second

  143.84        2950.00           1238          41.00       154.75
  143.91        2950.25           1242          35.00       128.60
  143.94        2950.50           1245          40.00       150.39
  143.97        2950.75           1248          37.00       137.32
  144.00        2951.00           1252          35.00       128.60
  144.03        2951.25           1255          38.00       141.67
  144.06        2951.50           1258          40.00       150.39
  144.09        2951.75           1261          43.00       163.47
  144.12        2952.00           1265          41.00       154.75
  144.15        2952.25           1268          39.00       146.03
  144.18        2952.50           1271          36.00       132.96
  144.21        2952.75           1275          44.00       167.83
  144.24        2953.00           1278          41.00       154.75
  144.27        2953.25           1281          39.00       146.03
  144.30        2953.50           1285          38.00       141.67
  144.33        2953.75           1288          47.00       180.91
  144.36        2954.00           1291          38.00       141.67
  144.39        2954.25           1295          45.00       172.19
  144.42        2954.50           1298          41.00       154.75
  144.45        2954.75           1301          42.00       159.11
  144.48        2955.00           1304          45.00       172.19
  144.51        2955.25           1308          37.00       137.32
  144.54        2955.50           1311          48.00       185.27
  144.57        2955.75           1314          44.00       167.83
  144.60        2956.00           1318          45.00       172.19
  144.64        2956.25           1321          43.00       163.47
  144.67        2956.50           1324          45.00       172.19
  144.70        2956.75           1328          40.00       150.39
  144.73        2957.00           1331          41.00       154.75
  144.76        2957.25           1334          38.00       141.67
  144.79        2957.50           1338          43.00       163.47
  144.82        2957.75           1341          42.00       159.11
  144.85        2958.00           1344          42.00       159.11
  144.88        2958.25           1347          46.00       176.55
  144.91        2958.50           1351          42.00       159.11
  144.94        2958.75           1354          45.00       172.19
  144.97        2959.00           1357          47.00       180.91
  145.00        2959.25           1361          45.00       172.19
  145.03        2959.50           1364          59.00       233.22
  145.06        2959.75           1367          58.00       228.86
  145.09        2960.00           1371          67.00       268.09
  145.12        2960.25           1374          82.00       333.48
  145.15        2960.50           1377          97.00       398.87
  145.18        2960.75           1381         230.00       978.67
  145.21        2961.00           1384         565.00      2439.14
  145.24        2961.25           1387        1144.00      4963.64
  145.27        2961.50           1390        2038.00      8862.27
  145.30        2961.75           1394        3690.00     16068.69
  145.33        2962.00           1397        5149.00     22435.62
  145.36        2962.25           1400        6828.00     29765.43
  145.39        2962.50           1404        9315.00     40628.15
  145.42        2962.75           1407       11211.00     48913.94
  145.46        2963.00           1410       13113.00     57229.82
  145.49        2963.25           1414       15396.00     67216.63
  145.52        2963.50           1417       17333.00     75694.26
  145.55        2963.75           1420       19198.00     83860.59
  145.58        2964.00           1424       21554.00     94182.22
  145.61        2964.25           1427       23326.00    101949.30
  145.64        2964.50           1430       25328.00    110728.60
  145.67        2964.75           1434       27825.00    121684.60
  145.70        2965.00           1437       29883.00    130719.50
  145.73        2965.25           1440       31785.00    139073.60
  145.76        2965.50           1444       34050.00    149027.30
  145.79        2965.75           1447       35613.00    155899.20
  145.82        2966.00           1450       36685.00    160613.90
  145.85        2966.25           1453       37514.00    164260.70
  145.88        2966.50           1457       38462.00    168432.00
  145.91        2966.75           1460       38568.00    168898.40
  145.95        2967.00           1463       39050.00    171019.70
  145.98        2967.25           1467       38858.00    170174.70
  146.01        2967.50           1470       38527.00    168718.00
  146.04        2967.75           1473       37535.00    164353.10
  146.07        2968.00           1477       36354.00    159158.00
  146.10        2968.25           1480       35053.00    153436.80
  146.13        2968.50           1483       33392.00    146135.10
  146.16        2968.75           1487       31019.00    135708.70
  146.19        2969.00           1490       28947.00    126609.80
  146.22        2969.25           1493       27001.00    118068.40
  146.25        2969.50           1497       24486.00    107035.60
  146.28        2969.75           1500       22575.00     98657.08
  146.31        2970.00           1503       20827.00     90996.60
  146.34        2970.25           1507       18362.00     80199.52
  146.37        2970.50           1510       16576.00     72380.63
  146.40        2970.75           1513       14796.00     64591.43
  146.43        2971.00           1517       12622.00     55082.71
  146.47        2971.25           1520       10972.00     47869.26
  146.50        2971.50           1523        9152.00     39915.99
  146.53        2971.75           1526        7272.00     31704.25
  146.56        2972.00           1530        5091.00     22182.48
  146.59        2972.25           1533        3513.00     15296.44
  146.62        2972.50           1536        2363.00     10279.77
  146.65        2972.75           1540        1196.00      5190.38
  146.68        2973.00           1543         664.00      2870.76
  146.71        2973.25           1546         354.00      1519.25
  146.74        2973.50           1550         167.00       704.02
  146.77        2973.75           1553         103.00       425.03
  146.80        2974.00           1556          67.00       268.09
  146.83        2974.25           1560          57.00       224.50
  146.86        2974.50           1563          47.00       180.91
  146.89        2974.75           1566          47.00       180.91
  146.92        2975.00           1570          44.00       167.83
  146.95        2975.25           1573          45.00       172.19
  146.98        2975.50           1576          50.00       193.99
  147.01        2975.75           1580          46.00       176.55
  147.04        2976.00           1583          43.00       163.47
  147.07        2976.25           1586          39.00       146.03
  147.10        2976.50           1590          48.00       185.27
  147.13        2976.75           1593          40.00       150.39
  147.16        2977.00           1596          36.00       132.96
  147.19        2977.25           1600          43.00       163.47
  147.22        2977.50           1603          41.00       154.75
  147.25        2977.75           1606          39.00       146.03
  147.28        2978.00           1610          43.00       163.47
  147.31        2978.25           1613          44.00       167.83
  147.34        2978.50           1616          48.00       185.27
  147.37        2978.75           1620          43.00       163.47
  147.40        2979.00           1623          41.00       154.75
  147.43        2979.25           1626          39.00       146.03
  147.46        2979.50           1630          37.00       137.32
  147.49        2979.75           1633          41.00       154.75
  147.52        2980.00           1636          48.00       185.27
  147.55        2980.25           1640          40.00       150.39
  147.59        2980.50           1643          44.00       167.83
  147.61        2980.75           1646          44.00       167.83
  147.64        2981.00           1650          37.00       137.32
  147.68        2981.25           1653          48.00       185.27
  147.71        2981.50           1656          53.00       207.06
  147.74        2981.75           1660          37.00       137.32
  147.77        2982.00           1663          39.00       146.03
  147.80        2982.25           1666          47.00       180.91
  147.83        2982.50           1670          44.00       167.83
  147.86        2982.75           1673          39.00       146.03
  147.89        2983.00           1676          40.00       150.39
  147.92        2983.25           1680          40.00       150.39
  147.95        2983.50           1683          41.00       154.75
  147.98        2983.75           1686          43.00       163.47
  148.01        2984.00           1690          44.00       167.83
HS scan finished at 02:28:13
end
