************************************************************
  HS Scan of (1) Internal mercury lamp
************************************************************
Integration time is 0.2294 seconds per sample
dh250619El Arenosillo 37.1 6.73 3.018777pr1000
************************************************************
Dead Time -------------------------  2.8E-08 
Number of Cycles Used -------------  4 
Starting Wavelength (Angstroms) ---  2950 
Final Wavelength (Angstoms) -------  2984 
Wavelength Increment (Angstroms) --  .25 
Filter Wheel #1 Position ---------- (1) Ground quartz diffuser (ND=2.32)
Filter Wheel #2 Position ---------- (1) Neutral Density 0.494



************************************************************
HS scan start time = 02:26:41
Dark Count =  7.9 


Time (GMT)  Wavelength (Ang)  Step Number  Raw Counts  Counts/Second

  147.05        2950.00           1238          45.00       161.73
  147.12        2950.25           1242          43.00       153.01
  147.15        2950.50           1245          41.00       144.29
  147.18        2950.75           1248          40.00       139.93
  147.21        2951.00           1252          41.00       144.29
  147.24        2951.25           1255          35.00       118.13
  147.27        2951.50           1258          47.00       170.45
  147.31        2951.75           1261          45.00       161.73
  147.34        2952.00           1265          47.00       170.45
  147.37        2952.25           1268          43.00       153.01
  147.40        2952.50           1271          43.00       153.01
  147.43        2952.75           1275          48.00       174.80
  147.46        2953.00           1278          45.00       161.73
  147.49        2953.25           1281          45.00       161.73
  147.52        2953.50           1285          38.00       131.21
  147.55        2953.75           1288          43.00       153.01
  147.58        2954.00           1291          47.00       170.45
  147.61        2954.25           1295          46.00       166.09
  147.64        2954.50           1298          39.00       135.57
  147.68        2954.75           1301          45.00       161.73
  147.71        2955.00           1304          41.00       144.29
  147.74        2955.25           1308          39.00       135.57
  147.77        2955.50           1311          35.00       118.13
  147.80        2955.75           1314          41.00       144.29
  147.83        2956.00           1318          44.00       157.37
  147.86        2956.25           1321          42.00       148.65
  147.89        2956.50           1324          45.00       161.73
  147.92        2956.75           1328          46.00       166.09
  147.95        2957.00           1331          43.00       153.01
  147.98        2957.25           1334          44.00       157.37
  148.01        2957.50           1338          39.00       135.57
  148.04        2957.75           1341          40.00       139.93
  148.07        2958.00           1344          43.00       153.01
  148.10        2958.25           1347          58.00       218.40
  148.13        2958.50           1351          42.00       148.65
  148.16        2958.75           1354          48.00       174.80
  148.19        2959.00           1357          52.00       192.24
  148.22        2959.25           1361          56.00       209.68
  148.25        2959.50           1364          58.00       218.40
  148.28        2959.75           1367          70.00       270.71
  148.31        2960.00           1371          73.00       283.79
  148.34        2960.25           1374          87.00       344.82
  148.37        2960.50           1377         100.00       401.49
  148.40        2960.75           1381         233.00       981.28
  148.44        2961.00           1384         550.00      2363.28
  148.47        2961.25           1387        1123.00      4861.60
  148.50        2961.50           1390        2022.00      8782.02
  148.53        2961.75           1394        3706.00     16128.03
  148.56        2962.00           1397        5313.00     23140.97
  148.59        2962.25           1400        6919.00     30152.30
  148.62        2962.50           1404        9335.00     40705.04
  148.65        2962.75           1407       11009.00     48020.50
  148.68        2963.00           1410       12893.00     56257.25
  148.71        2963.25           1414       15283.00     66711.69
  148.74        2963.50           1417       17100.00     74663.77
  148.78        2963.75           1420       18809.00     82146.45
  148.81        2964.00           1424       21314.00     93119.99
  148.84        2964.25           1427       23096.00    100930.40
  148.87        2964.50           1430       24982.00    109200.40
  148.90        2964.75           1434       27139.00    118663.50
  148.93        2965.00           1437       29007.00    126862.70
  148.96        2965.25           1440       30841.00    134916.30
  149.00        2965.50           1444       33299.00    145715.80
  149.03        2965.75           1447       34913.00    152810.70
  149.06        2966.00           1450       36094.00    158003.90
  149.09        2966.25           1453       37048.00    162200.10
  149.12        2966.50           1457       37915.00    166014.50
  149.15        2966.75           1460       38508.00    168623.80
  149.18        2967.00           1463       38672.00    169345.50
  149.21        2967.25           1467       38547.00    168795.50
  149.24        2967.50           1470       38025.00    166498.50
  149.27        2967.75           1473       37236.00    163027.20
  149.30        2968.00           1477       35709.00    156310.80
  149.33        2968.25           1480       34208.00    149711.30
  149.36        2968.50           1483       32607.00    142674.80
  149.39        2968.75           1487       30196.00    132083.50
  149.43        2969.00           1490       28317.00    123833.60
  149.46        2969.25           1493       26267.00    114837.30
  149.49        2969.50           1497       23662.00    103411.90
  149.52        2969.75           1500       21959.00     95946.60
  149.55        2970.00           1503       20301.00     88681.58
  149.58        2970.25           1507       18011.00     78652.10
  149.61        2970.50           1510       16322.00     71258.43
  149.64        2970.75           1513       14611.00     63771.58
  149.67        2971.00           1517       12470.00     54407.58
  149.70        2971.25           1520       10786.00     47045.80
  149.73        2971.50           1523        8866.00     38656.03
  149.76        2971.75           1526        7169.00     31243.98
  149.80        2972.00           1530        4870.00     21207.45
  149.82        2972.25           1533        3515.00     15294.69
  149.86        2972.50           1536        2408.00     10465.58
  149.89        2972.75           1540        1258.00      5450.26
  149.92        2973.00           1543         707.00      3047.78
  149.95        2973.25           1546         373.00      1591.61
  149.98        2973.50           1550         158.00       654.33
  150.01        2973.75           1553          94.00       375.33
  150.04        2974.00           1556          62.00       235.83
  150.07        2974.25           1560          52.00       192.24
  150.10        2974.50           1563          60.00       227.12
  150.13        2974.75           1566          47.00       170.45
  150.17        2975.00           1570          50.00       183.52
  150.20        2975.25           1573          43.00       153.01
  150.23        2975.50           1576          41.00       144.29
  150.26        2975.75           1580          44.00       157.37
  150.29        2976.00           1583          48.00       174.80
  150.32        2976.25           1586          43.00       153.01
  150.35        2976.50           1590          39.00       135.57
  150.38        2976.75           1593          47.00       170.45
  150.41        2977.00           1596          42.00       148.65
  150.44        2977.25           1600          43.00       153.01
  150.48        2977.50           1603          43.00       153.01
  150.51        2977.75           1606          45.00       161.73
  150.54        2978.00           1610          37.00       126.85
  150.57        2978.25           1613          50.00       183.52
  150.60        2978.50           1616          39.00       135.57
  150.63        2978.75           1620          36.00       122.49
  150.66        2979.00           1623          38.00       131.21
  150.69        2979.25           1626          43.00       153.01
  150.72        2979.50           1630          47.00       170.45
  150.75        2979.75           1633          47.00       170.45
  150.78        2980.00           1636          41.00       144.29
  150.81        2980.25           1640          47.00       170.45
  150.84        2980.50           1643          43.00       153.01
  150.88        2980.75           1646          40.00       139.93
  150.91        2981.00           1650          46.00       166.09
  150.94        2981.25           1653          42.00       148.65
  150.97        2981.50           1656          47.00       170.45
  151.00        2981.75           1660          48.00       174.80
  151.03        2982.00           1663          42.00       148.65
  151.06        2982.25           1666          37.00       126.85
  151.09        2982.50           1670          37.00       126.85
  151.12        2982.75           1673          38.00       131.21
  151.15        2983.00           1676          41.00       144.29
  151.18        2983.25           1680          39.00       135.57
  151.21        2983.50           1683          48.00       174.80
  151.24        2983.75           1686          42.00       148.65
  151.27        2984.00           1690          35.00       118.13
HS scan finished at 02:31:28
end
