************************************************************
  HS Scan of (1) Internal mercury lamp
************************************************************
Integration time is 0.2294 seconds per sample
dh200619El Arenosillo 37.1 6.73 2.911481pr1000
************************************************************
Dead Time -------------------------  2.8E-08 
Number of Cycles Used -------------  4 
Starting Wavelength (Angstroms) ---  2950 
Final Wavelength (Angstoms) -------  2984 
Wavelength Increment (Angstroms) --  .25 
Filter Wheel #1 Position ---------- (1) Ground quartz diffuser (ND=2.32)
Filter Wheel #2 Position ---------- (1) Neutral Density 0.494



************************************************************
HS scan start time = 03:45:50
Dark Count =  6.6 


Time (GMT)  Wavelength (Ang)  Step Number  Raw Counts  Counts/Second

  226.19        2950.00           1238          37.00       132.52
  226.26        2950.25           1242          41.00       149.96
  226.29        2950.50           1245          46.00       171.75
  226.32        2950.75           1248          50.00       189.19
  226.35        2951.00           1252          56.00       215.35
  226.38        2951.25           1255          43.00       158.68
  226.41        2951.50           1258          46.00       171.75
  226.44        2951.75           1261          45.00       167.39
  226.47        2952.00           1265          49.00       184.83
  226.50        2952.25           1268          45.00       167.39
  226.53        2952.50           1271          40.00       145.60
  226.56        2952.75           1275          37.00       132.52
  226.59        2953.00           1278          45.00       167.39
  226.62        2953.25           1281          42.00       154.32
  226.65        2953.50           1285          44.00       163.03
  226.68        2953.75           1288          41.00       149.96
  226.71        2954.00           1291          41.00       149.96
  226.74        2954.25           1295          44.00       163.03
  226.77        2954.50           1298          46.00       171.75
  226.80        2954.75           1301          47.00       176.11
  226.83        2955.00           1304          47.00       176.11
  226.86        2955.25           1308          46.00       171.75
  226.89        2955.50           1311          49.00       184.83
  226.92        2955.75           1314          41.00       149.96
  226.95        2956.00           1318          41.00       149.96
  226.99        2956.25           1321          47.00       176.11
  227.02        2956.50           1324          42.00       154.32
  227.05        2956.75           1328          46.00       171.75
  227.08        2957.00           1331          47.00       176.11
  227.11        2957.25           1334          44.00       163.03
  227.14        2957.50           1338          40.00       145.60
  227.17        2957.75           1341          43.00       158.68
  227.20        2958.00           1344          52.00       197.91
  227.23        2958.25           1347          46.00       171.75
  227.26        2958.50           1351          42.00       154.32
  227.29        2958.75           1354          45.00       167.39
  227.32        2959.00           1357          53.00       202.27
  227.35        2959.25           1361          54.00       206.63
  227.38        2959.50           1364          59.00       228.42
  227.41        2959.75           1367          60.00       232.78
  227.44        2960.00           1371          64.00       250.22
  227.47        2960.25           1374          73.00       289.45
  227.50        2960.50           1377          88.00       354.84
  227.53        2960.75           1381         124.00       511.78
  227.56        2961.00           1384         294.00      1252.88
  227.59        2961.25           1387         661.00      2852.89
  227.62        2961.50           1390        1277.00      5538.78
  227.66        2961.75           1394        2485.00     10807.11
  227.69        2962.00           1397        3678.00     16011.54
  227.72        2962.25           1400        5039.00     21950.72
  227.75        2962.50           1404        7199.00     31380.66
  227.78        2962.75           1407        8828.00     38495.70
  227.81        2963.00           1410       10556.00     46046.26
  227.84        2963.25           1414       12451.00     54330.19
  227.87        2963.50           1417       14162.00     61813.09
  227.90        2963.75           1420       15938.00     69583.58
  227.93        2964.00           1424       18205.00     79507.24
  227.96        2964.25           1427       19812.00     86545.12
  227.99        2964.50           1430       21620.00     94466.63
  228.02        2964.75           1434       23847.00    104228.80
  228.05        2965.00           1437       25552.00    111706.30
  228.08        2965.25           1440       27311.00    119424.00
  228.11        2965.50           1444       29920.00    130877.20
  228.14        2965.75           1447       31755.00    138937.00
  228.18        2966.00           1450       32963.00    144244.90
  228.21        2966.25           1453       34309.00    150161.00
  228.24        2966.50           1457       35518.00    155476.60
  228.27        2966.75           1460       36290.00    158871.70
  228.30        2967.00           1463       36509.00    159834.90
  228.33        2967.25           1467       36733.00    160820.20
  228.36        2967.50           1470       36429.00    159483.00
  228.39        2967.75           1473       35863.00    156993.80
  228.42        2968.00           1477       34878.00    152662.50
  228.45        2968.25           1480       33560.00    146868.60
  228.48        2968.50           1483       32249.00    141107.40
  228.51        2968.75           1487       30112.00    131720.30
  228.54        2969.00           1490       28395.00    124181.70
  228.57        2969.25           1493       26625.00    116413.70
  228.60        2969.50           1497       24356.00    106460.70
  228.63        2969.75           1500       22728.00     99322.93
  228.66        2970.00           1503       21140.00     92363.24
  228.69        2970.25           1507       18793.00     82082.08
  228.72        2970.50           1510       17334.00     75693.83
  228.75        2970.75           1513       15814.00     69040.93
  228.79        2971.00           1517       13649.00     59569.20
  228.82        2971.25           1520       11935.00     52074.13
  228.85        2971.50           1523       10337.00     45089.15
  228.88        2971.75           1526        8720.00     38023.90
  228.91        2972.00           1530        6445.00     28088.34
  228.94        2972.25           1533        4826.00     21021.09
  228.97        2972.50           1536        3399.00     14794.27
  229.00        2972.75           1540        1928.00      8377.73
  229.03        2973.00           1543        1154.00      5002.45
  229.06        2973.25           1546         667.00      2879.05
  229.09        2973.50           1550         301.00      1283.39
  229.12        2973.75           1553         155.00       646.92
  229.15        2974.00           1556          86.00       346.12
  229.18        2974.25           1560          57.00       219.70
  229.21        2974.50           1563          52.00       197.91
  229.24        2974.75           1566          50.00       189.19
  229.27        2975.00           1570          54.00       206.63
  229.30        2975.25           1573          42.00       154.32
  229.33        2975.50           1576          43.00       158.68
  229.36        2975.75           1580          45.00       167.39
  229.39        2976.00           1583          47.00       176.11
  229.42        2976.25           1586          42.00       154.32
  229.45        2976.50           1590          52.00       197.91
  229.48        2976.75           1593          50.00       189.19
  229.51        2977.00           1596          49.00       184.83
  229.54        2977.25           1600          45.00       167.39
  229.57        2977.50           1603          45.00       167.39
  229.61        2977.75           1606          44.00       163.03
  229.64        2978.00           1610          41.00       149.96
  229.67        2978.25           1613          44.00       163.03
  229.70        2978.50           1616          43.00       158.68
  229.73        2978.75           1620          38.00       136.88
  229.76        2979.00           1623          46.00       171.75
  229.79        2979.25           1626          45.00       167.39
  229.82        2979.50           1630          44.00       163.03
  229.85        2979.75           1633          46.00       171.75
  229.88        2980.00           1636          45.00       167.39
  229.91        2980.25           1640          49.00       184.83
  229.94        2980.50           1643          46.00       171.75
  229.97        2980.75           1646          39.00       141.24
  230.00        2981.00           1650          43.00       158.68
  230.03        2981.25           1653          38.00       136.88
  230.06        2981.50           1656          44.00       163.03
  230.09        2981.75           1660          37.00       132.52
  230.12        2982.00           1663          39.00       141.24
  230.15        2982.25           1666          49.00       184.83
  230.18        2982.50           1670          48.00       180.47
  230.21        2982.75           1673          41.00       149.96
  230.24        2983.00           1676          46.00       171.75
  230.27        2983.25           1680          42.00       154.32
  230.30        2983.50           1683          44.00       163.03
  230.33        2983.75           1686          48.00       180.47
  230.36        2984.00           1690          46.00       171.75
HS scan finished at 03:50:34
end
