************************************************************
  HS Scan of (1) Internal mercury lamp
************************************************************
Integration time is 0.2294 seconds per sample
dh270619El Arenosillo 37.1 6.73 3.018777pr1000
************************************************************
Dead Time -------------------------  2.8E-08 
Number of Cycles Used -------------  4 
Starting Wavelength (Angstroms) ---  2950 
Final Wavelength (Angstoms) -------  2984 
Wavelength Increment (Angstroms) --  .25 
Filter Wheel #1 Position ---------- (1) Ground quartz diffuser (ND=2.32)
Filter Wheel #2 Position ---------- (1) Neutral Density 0.494



************************************************************
HS scan start time = 03:57:43
Dark Count =  5.5 


Time (GMT)  Wavelength (Ang)  Step Number  Raw Counts  Counts/Second

  238.07        2950.00           1238          42.00       159.11
  238.14        2950.25           1242          49.00       189.63
  238.17        2950.50           1245          43.00       163.47
  238.20        2950.75           1248          39.00       146.03
  238.23        2951.00           1252          40.00       150.39
  238.26        2951.25           1255          40.00       150.39
  238.29        2951.50           1258          45.00       172.19
  238.32        2951.75           1261          43.00       163.47
  238.35        2952.00           1265          47.00       180.91
  238.38        2952.25           1268          44.00       167.83
  238.41        2952.50           1271          45.00       172.19
  238.44        2952.75           1275          40.00       150.39
  238.47        2953.00           1278          44.00       167.83
  238.51        2953.25           1281          40.00       150.39
  238.54        2953.50           1285          48.00       185.27
  238.57        2953.75           1288          38.00       141.67
  238.60        2954.00           1291          49.00       189.63
  238.63        2954.25           1295          44.00       167.83
  238.66        2954.50           1298          38.00       141.67
  238.69        2954.75           1301          47.00       180.91
  238.72        2955.00           1304          46.00       176.55
  238.75        2955.25           1308          45.00       172.19
  238.78        2955.50           1311          42.00       159.11
  238.81        2955.75           1314          42.00       159.11
  238.84        2956.00           1318          43.00       163.47
  238.87        2956.25           1321          43.00       163.47
  238.90        2956.50           1324          43.00       163.47
  238.94        2956.75           1328          46.00       176.55
  238.97        2957.00           1331          50.00       193.99
  239.00        2957.25           1334          45.00       172.19
  239.03        2957.50           1338          42.00       159.11
  239.06        2957.75           1341          42.00       159.11
  239.09        2958.00           1344          42.00       159.11
  239.12        2958.25           1347          49.00       189.63
  239.15        2958.50           1351          47.00       180.91
  239.18        2958.75           1354          49.00       189.63
  239.21        2959.00           1357          49.00       189.63
  239.24        2959.25           1361          54.00       211.42
  239.27        2959.50           1364          59.00       233.22
  239.30        2959.75           1367          71.00       285.53
  239.33        2960.00           1371          69.00       276.81
  239.36        2960.25           1374          83.00       337.84
  239.39        2960.50           1377          97.00       398.87
  239.42        2960.75           1381         205.00       869.68
  239.46        2961.00           1384         505.00      2177.55
  239.49        2961.25           1387         984.00      4265.98
  239.52        2961.50           1390        1716.00      7457.97
  239.55        2961.75           1394        3137.00     13656.05
  239.58        2962.00           1397        4479.00     19511.53
  239.61        2962.25           1400        5995.00     26128.52
  239.64        2962.50           1404        8334.00     36342.55
  239.67        2962.75           1407        9953.00     43415.87
  239.70        2963.00           1410       11752.00     51278.90
  239.73        2963.25           1414       14031.00     61244.87
  239.76        2963.50           1417       15748.00     68756.91
  239.79        2963.75           1420       17395.00     75965.69
  239.82        2964.00           1424       19706.00     86085.63
  239.86        2964.25           1427       21697.00     94808.89
  239.89        2964.50           1430       23543.00    102900.70
  239.92        2964.75           1434       26042.00    113860.70
  239.95        2965.00           1437       27730.00    121267.70
  239.98        2965.25           1440       29501.00    129042.10
  240.01        2965.50           1444       31732.00    138840.80
  240.05        2965.75           1447       33251.00    145515.40
  240.08        2966.00           1450       34672.00    151761.70
  240.11        2966.25           1453       35800.00    156721.50
  240.14        2966.50           1457       36604.00    160257.60
  240.17        2966.75           1460       37128.00    162562.60
  240.20        2967.00           1463       37128.00    162562.60
  240.23        2967.25           1467       37076.00    162333.90
  240.26        2967.50           1470       36721.00    160772.20
  240.29        2967.75           1473       36029.00    157728.60
  240.32        2968.00           1477       35078.00    153546.70
  240.35        2968.25           1480       33654.00    147286.60
  240.38        2968.50           1483       32223.00    140998.00
  240.42        2968.75           1487       30231.00    132247.70
  240.45        2969.00           1490       28594.00    125060.10
  240.48        2969.25           1493       26798.00    117177.60
  240.51        2969.50           1497       24670.00    107842.60
  240.54        2969.75           1500       22735.00     99358.42
  240.57        2970.00           1503       21105.00     92214.69
  240.60        2970.25           1507       18636.00     81399.35
  240.63        2970.50           1510       16813.00     73417.99
  240.67        2970.75           1513       15121.00     66013.37
  240.70        2971.00           1517       12954.00     56534.49
  240.73        2971.25           1520       11346.00     49504.06
  240.76        2971.50           1523        9498.00     41427.72
  240.79        2971.75           1526        7721.00     33665.11
  240.82        2972.00           1530        5502.00     23976.42
  240.86        2972.25           1533        3865.00     16832.26
  240.89        2972.50           1536        2593.00     11282.99
  240.92        2972.75           1540        1336.00      5800.86
  240.95        2973.00           1543         775.00      3354.72
  240.98        2973.25           1546         411.00      1767.74
  241.01        2973.50           1550         183.00       773.77
  241.04        2973.75           1553          94.00       385.79
  241.07        2974.00           1556          71.00       285.53
  241.10        2974.25           1560          52.00       202.70
  241.13        2974.50           1563          55.00       215.78
  241.17        2974.75           1566          45.00       172.19
  241.20        2975.00           1570          45.00       172.19
  241.23        2975.25           1573          46.00       176.55
  241.26        2975.50           1576          46.00       176.55
  241.29        2975.75           1580          44.00       167.83
  241.32        2976.00           1583          48.00       185.27
  241.35        2976.25           1586          40.00       150.39
  241.38        2976.50           1590          50.00       193.99
  241.41        2976.75           1593          41.00       154.75
  241.44        2977.00           1596          40.00       150.39
  241.47        2977.25           1600          44.00       167.83
  241.50        2977.50           1603          43.00       163.47
  241.53        2977.75           1606          45.00       172.19
  241.56        2978.00           1610          47.00       180.91
  241.60        2978.25           1613          44.00       167.83
  241.63        2978.50           1616          36.00       132.96
  241.66        2978.75           1620          37.00       137.32
  241.69        2979.00           1623          43.00       163.47
  241.73        2979.25           1626          44.00       167.83
  241.76        2979.50           1630          40.00       150.39
  241.79        2979.75           1633          49.00       189.63
  241.82        2980.00           1636          46.00       176.55
  241.85        2980.25           1640          47.00       180.91
  241.88        2980.50           1643          38.00       141.67
  241.91        2980.75           1646          41.00       154.75
  241.94        2981.00           1650          40.00       150.39
  241.97        2981.25           1653          42.00       159.11
  242.00        2981.50           1656          42.00       159.11
  242.03        2981.75           1660          43.00       163.47
  242.06        2982.00           1663          39.00       146.03
  242.09        2982.25           1666          44.00       167.83
  242.12        2982.50           1670          47.00       180.91
  242.15        2982.75           1673          43.00       163.47
  242.18        2983.00           1676          44.00       167.83
  242.21        2983.25           1680          44.00       167.83
  242.24        2983.50           1683          45.00       172.19
  242.28        2983.75           1686          49.00       189.63
  242.31        2984.00           1690          39.00       146.03
HS scan finished at 04:02:30
end
