************************************************************
  HS Scan of (1) Internal mercury lamp
************************************************************
Integration time is 0.2294 seconds per sample
dh190619El Arenosillo 37.1 6.73 3.018777pr1000
************************************************************
Dead Time -------------------------  2.8E-08 
Number of Cycles Used -------------  4 
Starting Wavelength (Angstroms) ---  2950 
Final Wavelength (Angstoms) -------  2984 
Wavelength Increment (Angstroms) --  .25 
Filter Wheel #1 Position ---------- (1) Ground quartz diffuser (ND=2.32)
Filter Wheel #2 Position ---------- (1) Neutral Density 0.494



************************************************************
HS scan start time = 02:25:37
Dark Count =  5 


Time (GMT)  Wavelength (Ang)  Step Number  Raw Counts  Counts/Second

  145.98        2950.00           1238          45.00       174.37
  146.05        2950.25           1242          37.00       139.49
  146.08        2950.50           1245          44.00       170.01
  146.11        2950.75           1248          38.00       143.85
  146.14        2951.00           1252          46.00       178.73
  146.17        2951.25           1255          42.00       161.29
  146.20        2951.50           1258          45.00       174.37
  146.23        2951.75           1261          37.00       139.49
  146.26        2952.00           1265          45.00       174.37
  146.29        2952.25           1268          46.00       178.73
  146.32        2952.50           1271          44.00       170.01
  146.35        2952.75           1275          44.00       170.01
  146.38        2953.00           1278          37.00       139.49
  146.41        2953.25           1281          43.00       165.65
  146.44        2953.50           1285          43.00       165.65
  146.47        2953.75           1288          47.00       183.09
  146.50        2954.00           1291          38.00       143.85
  146.53        2954.25           1295          39.00       148.21
  146.56        2954.50           1298          44.00       170.01
  146.59        2954.75           1301          40.00       152.57
  146.62        2955.00           1304          35.00       130.78
  146.66        2955.25           1308          36.00       135.14
  146.69        2955.50           1311          38.00       143.85
  146.72        2955.75           1314          47.00       183.09
  146.75        2956.00           1318          38.00       143.85
  146.78        2956.25           1321          44.00       170.01
  146.81        2956.50           1324          45.00       174.37
  146.84        2956.75           1328          48.00       187.45
  146.87        2957.00           1331          40.00       152.57
  146.90        2957.25           1334          43.00       165.65
  146.93        2957.50           1338          42.00       161.29
  146.96        2957.75           1341          42.00       161.29
  146.99        2958.00           1344          44.00       170.01
  147.02        2958.25           1347          45.00       174.37
  147.05        2958.50           1351          43.00       165.65
  147.08        2958.75           1354          50.00       196.16
  147.11        2959.00           1357          49.00       191.81
  147.14        2959.25           1361          50.00       196.16
  147.17        2959.50           1364          58.00       231.04
  147.20        2959.75           1367          61.00       244.12
  147.23        2960.00           1371          65.00       261.55
  147.26        2960.25           1374          86.00       353.10
  147.29        2960.50           1377          96.00       396.69
  147.32        2960.75           1381         219.00       932.89
  147.35        2961.00           1384         554.00      2393.36
  147.38        2961.25           1387        1059.00      4595.19
  147.42        2961.50           1390        1802.00      7835.20
  147.45        2961.75           1394        3243.00     14120.66
  147.48        2962.00           1397        4615.00     20107.22
  147.51        2962.25           1400        6185.00     26960.19
  147.54        2962.50           1404        8524.00     37174.68
  147.57        2962.75           1407       10188.00     44444.99
  147.60        2963.00           1410       12231.00     53375.26
  147.63        2963.25           1414       14536.00     63456.16
  147.66        2963.50           1417       16074.00     70185.75
  147.69        2963.75           1420       17955.00     78419.61
  147.72        2964.00           1424       20375.00     89018.47
  147.75        2964.25           1427       22083.00     96502.78
  147.78        2964.50           1430       24106.00    105371.50
  147.81        2964.75           1434       26560.00    116135.50
  147.84        2965.00           1437       28443.00    124399.40
  147.87        2965.25           1440       30133.00    131819.60
  147.90        2965.50           1444       32435.00    141931.70
  147.94        2965.75           1447       33983.00    148735.00
  147.97        2966.00           1450       35570.00    155712.30
  148.00        2966.25           1453       36546.00    160004.70
  148.03        2966.50           1457       37500.00    164201.40
  148.06        2966.75           1460       37913.00    166018.40
  148.09        2967.00           1463       38165.00    167127.30
  148.12        2967.25           1467       38004.00    166418.90
  148.15        2967.50           1470       37446.00    163963.80
  148.18        2967.75           1473       36781.00    161038.40
  148.21        2968.00           1477       35640.00    156020.10
  148.24        2968.25           1480       34539.00    151179.10
  148.27        2968.50           1483       32932.00    144115.70
  148.30        2968.75           1487       30805.00    134770.90
  148.33        2969.00           1490       29214.00    127784.20
  148.36        2969.25           1493       27507.00    120291.10
  148.39        2969.50           1497       24974.00    109178.10
  148.42        2969.75           1500       23246.00    101600.80
  148.46        2970.00           1503       21427.00     93627.87
  148.49        2970.25           1507       19005.00     83017.52
  148.52        2970.50           1510       17212.00     75166.76
  148.55        2970.75           1513       15516.00     67743.90
  148.58        2971.00           1517       13325.00     58159.16
  148.61        2971.25           1520       11660.00     50878.89
  148.64        2971.50           1523        9817.00     42823.77
  148.67        2971.75           1526        7862.00     34283.11
  148.70        2972.00           1530        5451.00     23755.99
  148.73        2972.25           1533        3835.00     16703.54
  148.76        2972.50           1536        2578.00     11219.74
  148.79        2972.75           1540        1447.00      6287.07
  148.82        2973.00           1543         815.00      3531.30
  148.85        2973.25           1546         416.00      1791.72
  148.88        2973.50           1550         183.00       775.95
  148.91        2973.75           1553         106.00       440.28
  148.94        2974.00           1556          67.00       270.27
  148.97        2974.25           1560          53.00       209.24
  149.00        2974.50           1563          46.00       178.73
  149.03        2974.75           1566          52.00       204.88
  149.06        2975.00           1570          47.00       183.09
  149.09        2975.25           1573          52.00       204.88
  149.12        2975.50           1576          44.00       170.01
  149.15        2975.75           1580          47.00       183.09
  149.18        2976.00           1583          42.00       161.29
  149.21        2976.25           1586          43.00       165.65
  149.24        2976.50           1590          38.00       143.85
  149.27        2976.75           1593          45.00       174.37
  149.31        2977.00           1596          40.00       152.57
  149.34        2977.25           1600          39.00       148.21
  149.37        2977.50           1603          43.00       165.65
  149.40        2977.75           1606          44.00       170.01
  149.43        2978.00           1610          46.00       178.73
  149.46        2978.25           1613          41.00       156.93
  149.49        2978.50           1616          41.00       156.93
  149.52        2978.75           1620          58.00       231.04
  149.55        2979.00           1623          35.00       130.78
  149.58        2979.25           1626          43.00       165.65
  149.61        2979.50           1630          46.00       178.73
  149.64        2979.75           1633          43.00       165.65
  149.67        2980.00           1636          40.00       152.57
  149.70        2980.25           1640          49.00       191.81
  149.73        2980.50           1643          38.00       143.85
  149.76        2980.75           1646          39.00       148.21
  149.79        2981.00           1650          45.00       174.37
  149.82        2981.25           1653          41.00       156.93
  149.85        2981.50           1656          35.00       130.78
  149.88        2981.75           1660          42.00       161.29
  149.91        2982.00           1663          39.00       148.21
  149.94        2982.25           1666          43.00       165.65
  149.97        2982.50           1670          36.00       135.14
  150.00        2982.75           1673          41.00       156.93
  150.03        2983.00           1676          41.00       156.93
  150.06        2983.25           1680          40.00       152.57
  150.09        2983.50           1683          43.00       165.65
  150.12        2983.75           1686          38.00       143.85
  150.15        2984.00           1690          45.00       174.37
HS scan finished at 02:30:21
end
