************************************************************
  HS Scan of (1) Internal mercury lamp
************************************************************
Integration time is 0.2294 seconds per sample
dh230619El Arenosillo 37.1 6.73 2.857833pr1000
************************************************************
Dead Time -------------------------  2.8E-08 
Number of Cycles Used -------------  4 
Starting Wavelength (Angstroms) ---  2950 
Final Wavelength (Angstoms) -------  2984 
Wavelength Increment (Angstroms) --  .25 
Filter Wheel #1 Position ---------- (1) Ground quartz diffuser (ND=2.32)
Filter Wheel #2 Position ---------- (1) Neutral Density 0.494



************************************************************
HS scan start time = 01:14:58
Dark Count =  7.9 


Time (GMT)  Wavelength (Ang)  Step Number  Raw Counts  Counts/Second

   75.31        2950.00           1238          38.00       131.21
   75.38        2950.25           1242          44.00       157.37
   75.41        2950.50           1245          38.00       131.21
   75.45        2950.75           1248          35.00       118.13
   75.48        2951.00           1252          46.00       166.09
   75.51        2951.25           1255          38.00       131.21
   75.54        2951.50           1258          40.00       139.93
   75.58        2951.75           1261          45.00       161.73
   75.61        2952.00           1265          40.00       139.93
   75.64        2952.25           1268          41.00       144.29
   75.67        2952.50           1271          41.00       144.29
   75.71        2952.75           1275          40.00       139.93
   75.74        2953.00           1278          46.00       166.09
   75.77        2953.25           1281          43.00       153.01
   75.80        2953.50           1285          38.00       131.21
   75.83        2953.75           1288          39.00       135.57
   75.87        2954.00           1291          42.00       148.65
   75.90        2954.25           1295          40.00       139.93
   75.93        2954.50           1298          40.00       139.93
   75.97        2954.75           1301          35.00       118.13
   76.00        2955.00           1304          42.00       148.65
   76.03        2955.25           1308          43.00       153.01
   76.06        2955.50           1311          46.00       166.09
   76.09        2955.75           1314          43.00       153.01
   76.13        2956.00           1318          49.00       179.16
   76.16        2956.25           1321          43.00       153.01
   76.19        2956.50           1324          43.00       153.01
   76.23        2956.75           1328          40.00       139.93
   76.26        2957.00           1331          41.00       144.29
   76.29        2957.25           1334          38.00       131.21
   76.32        2957.50           1338          42.00       148.65
   76.35        2957.75           1341          45.00       161.73
   76.39        2958.00           1344          36.00       122.49
   76.42        2958.25           1347          46.00       166.09
   76.45        2958.50           1351          43.00       153.01
   76.49        2958.75           1354          47.00       170.45
   76.52        2959.00           1357          49.00       179.16
   76.55        2959.25           1361          51.00       187.88
   76.58        2959.50           1364          60.00       227.12
   76.62        2959.75           1367          61.00       231.47
   76.65        2960.00           1371          65.00       248.91
   76.68        2960.25           1374          80.00       314.30
   76.71        2960.50           1377          80.00       314.30
   76.75        2960.75           1381         112.00       453.80
   76.78        2961.00           1384         261.00      1103.35
   76.81        2961.25           1387         646.00      2781.82
   76.84        2961.50           1390        1194.00      5171.19
   76.87        2961.75           1394        2311.00     10042.49
   76.91        2962.00           1397        3606.00     15691.72
   76.94        2962.25           1400        4857.00     21150.71
   76.97        2962.50           1404        6949.00     30283.30
   77.00        2962.75           1407        8824.00     38472.55
   77.04        2963.00           1410       10411.00     45406.87
   77.07        2963.25           1414       12548.00     54748.64
   77.10        2963.50           1417       14101.00     61540.57
   77.14        2963.75           1420       15761.00     68803.31
   77.17        2964.00           1424       18229.00     79606.63
   77.20        2964.25           1427       19821.00     86578.85
   77.24        2964.50           1430       21717.00     94886.03
   77.27        2964.75           1434       24130.00    105464.00
   77.30        2965.00           1437       25759.00    112608.60
   77.33        2965.25           1440       27507.00    120278.40
   77.37        2965.50           1444       30030.00    131354.50
   77.40        2965.75           1447       31932.00    139708.90
   77.43        2966.00           1450       33467.00    146454.20
   77.46        2966.25           1453       34768.00    152173.20
   77.50        2966.50           1457       35956.00    157397.00
   77.53        2966.75           1460       36734.00    160818.90
   77.56        2967.00           1463       37083.00    162354.10
   77.60        2967.25           1467       37338.00    163475.90
   77.63        2967.50           1470       36925.00    161659.10
   77.66        2967.75           1473       36576.00    160123.90
   77.69        2968.00           1477       35458.00    155207.10
   77.73        2968.25           1480       34362.00    150388.30
   77.76        2968.50           1483       32847.00    143729.40
   77.79        2968.75           1487       30695.00    134275.00
   77.83        2969.00           1490       29062.00    127104.10
   77.86        2969.25           1493       27328.00    119492.90
   77.89        2969.50           1497       25007.00    109310.10
   77.93        2969.75           1500       23402.00    102272.00
   77.96        2970.00           1503       21752.00     95039.41
   77.99        2970.25           1507       19557.00     85422.47
   78.02        2970.50           1510       17727.00     77408.66
   78.05        2970.75           1513       16181.00     70641.33
   78.09        2971.00           1517       14009.00     61138.14
   78.12        2971.25           1520       12233.00     53371.33
   78.15        2971.50           1523       10744.00     46862.24
   78.18        2971.75           1526        9123.00     39778.80
   78.22        2972.00           1530        6735.00     29348.87
   78.25        2972.25           1533        5050.00     21993.05
   78.28        2972.50           1536        3560.00     15491.03
   78.31        2972.75           1540        2059.00      8943.39
   78.35        2973.00           1543        1283.00      5559.28
   78.38        2973.25           1546         685.00      2951.86
   78.41        2973.50           1550         331.00      1408.51
   78.44        2973.75           1553         166.00       689.20
   78.47        2974.00           1556          94.00       375.33
   78.51        2974.25           1560          61.00       231.47
   78.54        2974.50           1563          53.00       196.60
   78.57        2974.75           1566          44.00       157.37
   78.61        2975.00           1570          49.00       179.16
   78.64        2975.25           1573          43.00       153.01
   78.67        2975.50           1576          45.00       161.73
   78.70        2975.75           1580          49.00       179.16
   78.73        2976.00           1583          54.00       200.96
   78.77        2976.25           1586          41.00       144.29
   78.80        2976.50           1590          47.00       170.45
   78.83        2976.75           1593          48.00       174.80
   78.87        2977.00           1596          45.00       161.73
   78.90        2977.25           1600          52.00       192.24
   78.93        2977.50           1603          42.00       148.65
   78.96        2977.75           1606          45.00       161.73
   78.99        2978.00           1610          51.00       187.88
   79.03        2978.25           1613          45.00       161.73
   79.06        2978.50           1616          45.00       161.73
   79.09        2978.75           1620          44.00       157.37
   79.12        2979.00           1623          39.00       135.57
   79.16        2979.25           1626          44.00       157.37
   79.19        2979.50           1630          49.00       179.16
   79.22        2979.75           1633          39.00       135.57
   79.26        2980.00           1636          40.00       139.93
   79.29        2980.25           1640          49.00       179.16
   79.32        2980.50           1643          40.00       139.93
   79.35        2980.75           1646          43.00       153.01
   79.39        2981.00           1650          39.00       135.57
   79.42        2981.25           1653          42.00       148.65
   79.45        2981.50           1656          41.00       144.29
   79.48        2981.75           1660          38.00       131.21
   79.52        2982.00           1663          42.00       148.65
   79.55        2982.25           1666          44.00       157.37
   79.58        2982.50           1670          39.00       135.57
   79.61        2982.75           1673          41.00       144.29
   79.64        2983.00           1676          47.00       170.45
   79.68        2983.25           1680          40.00       139.93
   79.71        2983.50           1683          45.00       161.73
   79.74        2983.75           1686          43.00       153.01
   79.77        2984.00           1690          49.00       179.16
HS scan finished at 01:19:59
end
************************************************************
  HS Scan of (1) Internal mercury lamp
************************************************************
Integration time is 0.2294 seconds per sample
dh230619El Arenosillo 37.1 6.73 2.911481pr1000
************************************************************
Dead Time -------------------------  2.8E-08 
Number of Cycles Used -------------  4 
Starting Wavelength (Angstroms) ---  2950 
Final Wavelength (Angstoms) -------  2984 
Wavelength Increment (Angstroms) --  .25 
Filter Wheel #1 Position ---------- (1) Ground quartz diffuser (ND=2.32)
Filter Wheel #2 Position ---------- (1) Neutral Density 0.494



************************************************************
HS scan start time = 02:23:40
Dark Count =  3.8 


Time (GMT)  Wavelength (Ang)  Step Number  Raw Counts  Counts/Second

  144.03        2950.00           1238          37.00       144.73
  144.09        2950.25           1242          45.00       179.60
  144.12        2950.50           1245          45.00       179.60
  144.15        2950.75           1248          42.00       166.52
  144.18        2951.00           1252          47.00       188.32
  144.21        2951.25           1255          42.00       166.52
  144.24        2951.50           1258          46.00       183.96
  144.27        2951.75           1261          47.00       188.32
  144.30        2952.00           1265          38.00       149.09
  144.33        2952.25           1268          37.00       144.73
  144.36        2952.50           1271          38.00       149.09
  144.39        2952.75           1275          45.00       179.60
  144.42        2953.00           1278          42.00       166.52
  144.45        2953.25           1281          46.00       183.96
  144.49        2953.50           1285          39.00       153.44
  144.52        2953.75           1288          46.00       183.96
  144.55        2954.00           1291          43.00       170.88
  144.58        2954.25           1295          46.00       183.96
  144.61        2954.50           1298          40.00       157.80
  144.64        2954.75           1301          40.00       157.80
  144.67        2955.00           1304          38.00       149.09
  144.70        2955.25           1308          42.00       166.52
  144.73        2955.50           1311          45.00       179.60
  144.76        2955.75           1314          48.00       192.68
  144.79        2956.00           1318          43.00       170.88
  144.82        2956.25           1321          35.00       136.01
  144.85        2956.50           1324          51.00       205.76
  144.88        2956.75           1328          41.00       162.16
  144.91        2957.00           1331          43.00       170.88
  144.94        2957.25           1334          48.00       192.68
  144.97        2957.50           1338          37.00       144.73
  145.00        2957.75           1341          48.00       192.68
  145.03        2958.00           1344          41.00       162.16
  145.06        2958.25           1347          42.00       166.52
  145.09        2958.50           1351          42.00       166.52
  145.12        2958.75           1354          46.00       183.96
  145.16        2959.00           1357          58.00       236.27
  145.19        2959.25           1361          50.00       201.40
  145.22        2959.50           1364          55.00       223.19
  145.25        2959.75           1367          61.00       249.35
  145.28        2960.00           1371          67.00       275.50
  145.31        2960.25           1374          70.00       288.58
  145.34        2960.50           1377          96.00       401.92
  145.37        2960.75           1381         183.00       781.19
  145.40        2961.00           1384         439.00      1897.22
  145.43        2961.25           1387         946.00      4107.71
  145.46        2961.50           1390        1730.00      7526.43
  145.49        2961.75           1394        3160.00     13763.80
  145.52        2962.00           1397        4529.00     19737.15
  145.55        2962.25           1400        6043.00     26345.50
  145.58        2962.50           1404        8205.00     35786.50
  145.61        2962.75           1407        9968.00     43488.85
  145.64        2963.00           1410       11777.00     51395.62
  145.67        2963.25           1414       13857.00     60491.21
  145.70        2963.50           1417       15343.00     66992.16
  145.73        2963.75           1420       17129.00     74808.68
  145.76        2964.00           1424       19265.00     84161.48
  145.79        2964.25           1427       20902.00     91332.66
  145.82        2964.50           1430       22477.00     98234.96
  145.85        2964.75           1434       24723.00    108082.50
  145.88        2965.00           1437       26502.00    115886.30
  145.92        2965.25           1440       28166.00    123188.80
  145.95        2965.50           1444       30649.00    134091.00
  145.98        2965.75           1447       32290.00    141299.90
  146.01        2966.00           1450       33806.00    147962.20
  146.04        2966.25           1453       34910.00    152815.50
  146.07        2966.50           1457       36121.00    158140.70
  146.10        2966.75           1460       36612.00    160300.30
  146.13        2967.00           1463       36775.00    161017.20
  146.16        2967.25           1467       36696.00    160669.80
  146.19        2967.50           1470       36286.00    158866.40
  146.22        2967.75           1473       35590.00    155805.50
  146.25        2968.00           1477       34432.00    150714.00
  146.28        2968.25           1480       33149.00    145074.60
  146.31        2968.50           1483       31649.00    138483.60
  146.34        2968.75           1487       29304.00    128184.60
  146.37        2969.00           1490       27744.00    121336.60
  146.40        2969.25           1493       25882.00    113166.20
  146.43        2969.50           1497       23614.00    103219.40
  146.47        2969.75           1500       22008.00     96179.33
  146.50        2970.00           1503       20177.00     88156.31
  146.53        2970.25           1507       18014.00     78683.19
  146.56        2970.50           1510       16287.00     71123.19
  146.59        2970.75           1513       14681.00     64095.75
  146.62        2971.00           1517       12414.00     54180.66
  146.65        2971.25           1520       10821.00     47216.70
  146.68        2971.50           1523        9244.00     40325.37
  146.71        2971.75           1526        7670.00     33449.80
  146.74        2972.00           1530        5417.00     23612.82
  146.77        2972.25           1533        3986.00     17367.64
  146.80        2972.50           1536        2636.00     11477.97
  146.83        2972.75           1540        1439.00      6257.42
  146.86        2973.00           1543         822.00      3567.05
  146.89        2973.25           1546         451.00      1949.54
  146.92        2973.50           1550         202.00       864.01
  146.95        2973.75           1553         113.00       476.03
  146.98        2974.00           1556          67.00       275.50
  147.01        2974.25           1560          51.00       205.76
  147.04        2974.50           1563          49.00       197.04
  147.07        2974.75           1566          46.00       183.96
  147.10        2975.00           1570          44.00       175.24
  147.13        2975.25           1573          47.00       188.32
  147.17        2975.50           1576          45.00       179.60
  147.20        2975.75           1580          48.00       192.68
  147.23        2976.00           1583          47.00       188.32
  147.26        2976.25           1586          42.00       166.52
  147.29        2976.50           1590          46.00       183.96
  147.32        2976.75           1593          56.00       227.55
  147.35        2977.00           1596          44.00       175.24
  147.38        2977.25           1600          43.00       170.88
  147.41        2977.50           1603          50.00       201.40
  147.44        2977.75           1606          43.00       170.88
  147.47        2978.00           1610          40.00       157.80
  147.50        2978.25           1613          45.00       179.60
  147.53        2978.50           1616          38.00       149.09
  147.56        2978.75           1620          38.00       149.09
  147.59        2979.00           1623          39.00       153.44
  147.62        2979.25           1626          43.00       170.88
  147.65        2979.50           1630          45.00       179.60
  147.68        2979.75           1633          37.00       144.73
  147.71        2980.00           1636          45.00       179.60
  147.75        2980.25           1640          39.00       153.44
  147.78        2980.50           1643          50.00       201.40
  147.81        2980.75           1646          49.00       197.04
  147.84        2981.00           1650          46.00       183.96
  147.87        2981.25           1653          44.00       175.24
  147.90        2981.50           1656          39.00       153.44
  147.93        2981.75           1660          39.00       153.44
  147.96        2982.00           1663          42.00       166.52
  147.99        2982.25           1666          38.00       149.09
  148.02        2982.50           1670          41.00       162.16
  148.05        2982.75           1673          40.00       157.80
  148.08        2983.00           1676          42.00       166.52
  148.11        2983.25           1680          36.00       140.37
  148.14        2983.50           1683          45.00       179.60
  148.17        2983.75           1686          39.00       153.44
  148.20        2984.00           1690          43.00       170.88
HS scan finished at 02:28:24
end
