************************************************************
  HS Scan of (1) Internal mercury lamp
************************************************************
Integration time is 0.2294 seconds per sample
dh240619El Arenosillo 37.1 6.73 2.965129pr1000
************************************************************
Dead Time -------------------------  2.8E-08 
Number of Cycles Used -------------  4 
Starting Wavelength (Angstroms) ---  2950 
Final Wavelength (Angstoms) -------  2984 
Wavelength Increment (Angstroms) --  .25 
Filter Wheel #1 Position ---------- (1) Ground quartz diffuser (ND=2.32)
Filter Wheel #2 Position ---------- (1) Neutral Density 0.494



************************************************************
HS scan start time = 02:17:07
Dark Count =  6.4 


Time (GMT)  Wavelength (Ang)  Step Number  Raw Counts  Counts/Second

  137.48        2950.00           1238          43.00       159.55
  137.54        2950.25           1242          45.00       168.27
  137.58        2950.50           1245          40.00       146.47
  137.61        2950.75           1248          42.00       155.19
  137.64        2951.00           1252          48.00       181.34
  137.67        2951.25           1255          43.00       159.55
  137.70        2951.50           1258          53.00       203.14
  137.73        2951.75           1261          43.00       159.55
  137.76        2952.00           1265          44.00       163.91
  137.79        2952.25           1268          45.00       168.27
  137.82        2952.50           1271          43.00       159.55
  137.85        2952.75           1275          40.00       146.47
  137.88        2953.00           1278          41.00       150.83
  137.91        2953.25           1281          37.00       133.39
  137.94        2953.50           1285          44.00       163.91
  137.97        2953.75           1288          45.00       168.27
  138.00        2954.00           1291          51.00       194.42
  138.03        2954.25           1295          52.00       198.78
  138.06        2954.50           1298          45.00       168.27
  138.09        2954.75           1301          48.00       181.34
  138.12        2955.00           1304          33.00       115.96
  138.15        2955.25           1308          44.00       163.91
  138.18        2955.50           1311          39.00       142.11
  138.21        2955.75           1314          46.00       172.63
  138.24        2956.00           1318          37.00       133.39
  138.27        2956.25           1321          43.00       159.55
  138.30        2956.50           1324          39.00       142.11
  138.33        2956.75           1328          37.00       133.39
  138.36        2957.00           1331          45.00       168.27
  138.39        2957.25           1334          45.00       168.27
  138.42        2957.50           1338          43.00       159.55
  138.46        2957.75           1341          45.00       168.27
  138.49        2958.00           1344          46.00       172.63
  138.52        2958.25           1347          48.00       181.34
  138.55        2958.50           1351          42.00       155.19
  138.58        2958.75           1354          50.00       190.06
  138.61        2959.00           1357          48.00       181.34
  138.64        2959.25           1361          58.00       224.94
  138.67        2959.50           1364          57.00       220.58
  138.70        2959.75           1367          63.00       246.73
  138.73        2960.00           1371          66.00       259.81
  138.76        2960.25           1374          75.00       299.04
  138.79        2960.50           1377          91.00       368.79
  138.82        2960.75           1381         183.00       769.85
  138.85        2961.00           1384         435.00      1868.45
  138.88        2961.25           1387         886.00      3834.76
  138.91        2961.50           1390        1590.00      6904.56
  138.94        2961.75           1394        2946.00     12818.90
  138.97        2962.00           1397        4129.00     17980.28
  139.00        2962.25           1400        5669.00     24701.47
  139.03        2962.50           1404        7865.00     34290.10
  139.06        2962.75           1407        9631.00     42004.91
  139.09        2963.00           1410       11163.00     48700.19
  139.12        2963.25           1414       13471.00     58791.56
  139.16        2963.50           1417       15127.00     66035.68
  139.19        2963.75           1420       16794.00     73330.88
  139.22        2964.00           1424       19120.00     83515.03
  139.25        2964.25           1427       20742.00     90620.24
  139.28        2964.50           1430       22431.00     98021.94
  139.31        2964.75           1434       24926.00    108961.40
  139.34        2965.00           1437       26911.00    117669.50
  139.37        2965.25           1440       28678.00    125424.90
  139.40        2965.50           1444       31093.00    136029.80
  139.43        2965.75           1447       32671.00    142962.60
  139.46        2966.00           1450       34260.00    149946.50
  139.49        2966.25           1453       35414.00    155020.20
  139.52        2966.50           1457       36769.00    160979.40
  139.55        2966.75           1460       37189.00    162827.00
  139.58        2967.00           1463       37425.00    163865.20
  139.61        2967.25           1467       37465.00    164041.20
  139.64        2967.50           1470       36990.00    161951.60
  139.67        2967.75           1473       36493.00    159765.40
  139.71        2968.00           1477       35070.00    153507.60
  139.74        2968.25           1480       33739.00    147656.30
  139.77        2968.50           1483       32360.00    141596.00
  139.80        2968.75           1487       30385.00    132920.10
  139.83        2969.00           1490       28612.00    125135.20
  139.86        2969.25           1493       26851.00    117406.30
  139.89        2969.50           1497       24446.00    106856.30
  139.92        2969.75           1500       22812.00     99692.01
  139.95        2970.00           1503       21119.00     92272.09
  139.98        2970.25           1507       18869.00     82415.77
  140.02        2970.50           1510       17284.00     75475.81
  140.05        2970.75           1513       15695.00     68521.05
  140.08        2971.00           1517       13634.00     59504.47
  140.11        2971.25           1520       11901.00     51926.36
  140.14        2971.50           1523       10156.00     44299.03
  140.17        2971.75           1526        8356.00     36434.71
  140.20        2972.00           1530        6090.00     26539.33
  140.23        2972.25           1533        4430.00     19293.77
  140.26        2972.50           1536        3160.00     13752.46
  140.29        2972.75           1540        1720.00      7471.48
  140.33        2973.00           1543         993.00      4301.30
  140.36        2973.25           1546         540.00      2326.22
  140.39        2973.50           1550         224.00       948.59
  140.41        2973.75           1553         115.00       473.42
  140.44        2974.00           1556          66.00       259.81
  140.48        2974.25           1560          57.00       220.58
  140.51        2974.50           1563          98.00       399.31
  140.54        2974.75           1566          48.00       181.34
  140.57        2975.00           1570          50.00       190.06
  140.60        2975.25           1573          47.00       176.98
  140.63        2975.50           1576          46.00       172.63
  140.66        2975.75           1580          47.00       176.98
  140.69        2976.00           1583          44.00       163.91
  140.72        2976.25           1586          46.00       172.63
  140.75        2976.50           1590          48.00       181.34
  140.78        2976.75           1593          43.00       159.55
  140.81        2977.00           1596          45.00       168.27
  140.84        2977.25           1600          42.00       155.19
  140.87        2977.50           1603          40.00       146.47
  140.90        2977.75           1606          38.00       137.75
  140.93        2978.00           1610          38.00       137.75
  140.96        2978.25           1613          42.00       155.19
  140.99        2978.50           1616          44.00       163.91
  141.02        2978.75           1620          48.00       181.34
  141.05        2979.00           1623          41.00       150.83
  141.08        2979.25           1626          38.00       137.75
  141.11        2979.50           1630          35.00       124.67
  141.14        2979.75           1633          42.00       155.19
  141.17        2980.00           1636          42.00       155.19
  141.20        2980.25           1640          46.00       172.63
  141.23        2980.50           1643          36.00       129.03
  141.26        2980.75           1646          41.00       150.83
  141.30        2981.00           1650          39.00       142.11
  141.33        2981.25           1653          42.00       155.19
  141.36        2981.50           1656          40.00       146.47
  141.39        2981.75           1660          48.00       181.34
  141.42        2982.00           1663          42.00       155.19
  141.45        2982.25           1666          43.00       159.55
  141.48        2982.50           1670          50.00       190.06
  141.51        2982.75           1673          40.00       146.47
  141.54        2983.00           1676          51.00       194.42
  141.57        2983.25           1680          40.00       146.47
  141.60        2983.50           1683          37.00       133.39
  141.63        2983.75           1686          49.00       185.70
  141.66        2984.00           1690          42.00       155.19
HS scan finished at 02:21:52
end
************************************************************
  HS Scan of (1) Internal mercury lamp
************************************************************
Integration time is 0.2294 seconds per sample
dh240619El Arenosillo 37.1 6.73 3.072425pr1000
************************************************************
Dead Time -------------------------  2.8E-08 
Number of Cycles Used -------------  4 
Starting Wavelength (Angstroms) ---  2950 
Final Wavelength (Angstoms) -------  2984 
Wavelength Increment (Angstroms) --  .25 
Filter Wheel #1 Position ---------- (1) Ground quartz diffuser (ND=2.32)
Filter Wheel #2 Position ---------- (1) Neutral Density 0.494



************************************************************
HS scan start time = 21:37:30
Dark Count =  6.3 


Time (GMT)  Wavelength (Ang)  Step Number  Raw Counts  Counts/Second

 1297.86        2950.00           1238          38.00       138.19
 1297.93        2950.25           1242          41.00       151.26
 1297.96        2950.50           1245          42.00       155.62
 1297.99        2950.75           1248          35.00       125.11
 1298.02        2951.00           1252          43.00       159.98
 1298.05        2951.25           1255          48.00       181.78
 1298.09        2951.50           1258          39.00       142.55
 1298.12        2951.75           1261          43.00       159.98
 1298.15        2952.00           1265          42.00       155.62
 1298.18        2952.25           1268          45.00       168.70
 1298.21        2952.50           1271          50.00       190.50
 1298.24        2952.75           1275          47.00       177.42
 1298.27        2953.00           1278          38.00       138.19
 1298.31        2953.25           1281          43.00       159.98
 1298.34        2953.50           1285          39.00       142.55
 1298.37        2953.75           1288          44.00       164.34
 1298.40        2954.00           1291          37.00       133.83
 1298.43        2954.25           1295          45.00       168.70
 1298.46        2954.50           1298          41.00       151.26
 1298.49        2954.75           1301          39.00       142.55
 1298.52        2955.00           1304          49.00       186.14
 1298.55        2955.25           1308          43.00       159.98
 1298.58        2955.50           1311          40.00       146.91
 1298.61        2955.75           1314          38.00       138.19
 1298.64        2956.00           1318          46.00       173.06
 1298.67        2956.25           1321          42.00       155.62
 1298.71        2956.50           1324          49.00       186.14
 1298.73        2956.75           1328          45.00       168.70
 1298.77        2957.00           1331          46.00       173.06
 1298.80        2957.25           1334          40.00       146.91
 1298.83        2957.50           1338          36.00       129.47
 1298.86        2957.75           1341          36.00       129.47
 1298.89        2958.00           1344          45.00       168.70
 1298.92        2958.25           1347          41.00       151.26
 1298.95        2958.50           1351          50.00       190.50
 1298.98        2958.75           1354          42.00       155.62
 1299.01        2959.00           1357          53.00       203.58
 1299.04        2959.25           1361          58.00       225.37
 1299.07        2959.50           1364          71.00       282.04
 1299.11        2959.75           1367          64.00       251.53
 1299.14        2960.00           1371          70.00       277.68
 1299.17        2960.25           1374          75.00       299.48
 1299.20        2960.50           1377          80.00       321.28
 1299.23        2960.75           1381         206.00       870.55
 1299.26        2961.00           1384         535.00      2304.86
 1299.29        2961.25           1387        1118.00      4846.78
 1299.32        2961.50           1390        1999.00      8688.69
 1299.35        2961.75           1394        3543.00     15423.84
 1299.38        2962.00           1397        5070.00     22087.33
 1299.42        2962.25           1400        6544.00     28521.90
 1299.45        2962.50           1404        8975.00     39139.21
 1299.48        2962.75           1407       10680.00     46589.51
 1299.51        2963.00           1410       12472.00     54423.33
 1299.54        2963.25           1414       14973.00     65362.32
 1299.57        2963.50           1417       16463.00     71882.54
 1299.60        2963.75           1420       17933.00     78317.58
 1299.64        2964.00           1424       20303.00     88697.34
 1299.67        2964.25           1427       21925.00     95804.61
 1299.70        2964.50           1430       23742.00    103769.70
 1299.73        2964.75           1434       26126.00    114225.70
 1299.76        2965.00           1437       27886.00    121948.80
 1299.79        2965.25           1440       29700.00    129912.40
 1299.82        2965.50           1444       32369.00    141636.00
 1299.85        2965.75           1447       33984.00    148733.60
 1299.88        2966.00           1450       35290.00    154475.40
 1299.92        2966.25           1453       36368.00    159216.10
 1299.95        2966.50           1457       37568.00    164494.80
 1299.98        2966.75           1460       37966.00    166245.90
 1300.01        2967.00           1463       38418.00    168234.80
 1300.04        2967.25           1467       38174.00    167161.10
 1300.07        2967.50           1470       37666.00    164926.00
 1300.11        2967.75           1473       36772.00    160993.10
 1300.14        2968.00           1477       35446.00    155161.30
 1300.17        2968.25           1480       34037.00    148966.60
 1300.20        2968.50           1483       32326.00    141447.10
 1300.23        2968.75           1487       30109.00    131708.50
 1300.26        2969.00           1490       28219.00    123410.50
 1300.29        2969.25           1493       26408.00    115462.90
 1300.32        2969.50           1497       24074.00    105225.40
 1300.36        2969.75           1500       22245.00     97207.11
 1300.39        2970.00           1503       20620.00     90086.14
 1300.42        2970.25           1507       18182.00     79407.83
 1300.45        2970.50           1510       16496.00     72026.99
 1300.48        2970.75           1513       14839.00     64776.05
 1300.51        2971.00           1517       12618.00     55061.73
 1300.54        2971.25           1520       10857.00     47363.12
 1300.57        2971.50           1523        9111.00     39733.37
 1300.60        2971.75           1526        7381.00     32176.76
 1300.64        2972.00           1530        5233.00     22798.77
 1300.67        2972.25           1533        3851.00     16767.68
 1300.70        2972.50           1536        2597.00     11296.95
 1300.73        2972.75           1540        1389.00      6028.48
 1300.76        2973.00           1543         750.00      3242.23
 1300.80        2973.25           1546         420.00      1803.49
 1300.83        2973.50           1550         194.00       818.24
 1300.86        2973.75           1553          89.00       360.51
 1300.89        2974.00           1556          67.00       264.61
 1300.92        2974.25           1560          51.00       194.86
 1300.96        2974.50           1563          57.00       221.01
 1300.99        2974.75           1566          46.00       173.06
 1301.02        2975.00           1570          41.00       151.26
 1301.05        2975.25           1573          48.00       181.78
 1301.08        2975.50           1576          43.00       159.98
 1301.11        2975.75           1580          41.00       151.26
 1301.14        2976.00           1583          43.00       159.98
 1301.17        2976.25           1586          38.00       138.19
 1301.20        2976.50           1590          44.00       164.34
 1301.23        2976.75           1593          42.00       155.62
 1301.26        2977.00           1596          39.00       142.55
 1301.30        2977.25           1600          39.00       142.55
 1301.33        2977.50           1603          45.00       168.70
 1301.36        2977.75           1606          47.00       177.42
 1301.39        2978.00           1610          39.00       142.55
 1301.42        2978.25           1613          34.00       120.75
 1301.45        2978.50           1616          45.00       168.70
 1301.48        2978.75           1620          41.00       151.26
 1301.51        2979.00           1623          40.00       146.91
 1301.54        2979.25           1626          43.00       159.98
 1301.57        2979.50           1630          43.00       159.98
 1301.61        2979.75           1633          40.00       146.91
 1301.64        2980.00           1636          45.00       168.70
 1301.67        2980.25           1640          47.00       177.42
 1301.70        2980.50           1643          48.00       181.78
 1301.73        2980.75           1646          44.00       164.34
 1301.76        2981.00           1650          39.00       142.55
 1301.79        2981.25           1653          41.00       151.26
 1301.82        2981.50           1656          37.00       133.83
 1301.86        2981.75           1660          41.00       151.26
 1301.89        2982.00           1663          39.00       142.55
 1301.92        2982.25           1666          44.00       164.34
 1301.95        2982.50           1670          43.00       159.98
 1301.98        2982.75           1673          41.00       151.26
 1302.01        2983.00           1676          40.00       146.91
 1302.04        2983.25           1680          44.00       164.34
 1302.07        2983.50           1683          40.00       146.91
 1302.10        2983.75           1686          40.00       146.91
 1302.13        2984.00           1690          43.00       159.98
HS scan finished at 21:42:20
end
