************************************************************
  HS Scan of (1) Internal mercury lamp
************************************************************
Integration time is 0.2294 seconds per sample
dh210619El Arenosillo 37.1 6.73 2.911481pr1000
************************************************************
Dead Time -------------------------  2.8E-08 
Number of Cycles Used -------------  4 
Starting Wavelength (Angstroms) ---  2950 
Final Wavelength (Angstoms) -------  2984 
Wavelength Increment (Angstroms) --  .25 
Filter Wheel #1 Position ---------- (1) Ground quartz diffuser (ND=2.32)
Filter Wheel #2 Position ---------- (1) Neutral Density 0.494



************************************************************
HS scan start time = 03:01:32
Dark Count =  5.6 


Time (GMT)  Wavelength (Ang)  Step Number  Raw Counts  Counts/Second

  181.90        2950.00           1238          46.00       176.11
  181.97        2950.25           1242          42.00       158.68
  182.00        2950.50           1245          43.00       163.03
  182.03        2950.75           1248          42.00       158.68
  182.06        2951.00           1252          48.00       184.83
  182.09        2951.25           1255          35.00       128.16
  182.12        2951.50           1258          45.00       171.75
  182.15        2951.75           1261          48.00       184.83
  182.18        2952.00           1265          49.00       189.19
  182.21        2952.25           1268          43.00       163.03
  182.24        2952.50           1271          39.00       145.60
  182.27        2952.75           1275          42.00       158.68
  182.30        2953.00           1278          46.00       176.11
  182.33        2953.25           1281          41.00       154.32
  182.36        2953.50           1285          38.00       141.24
  182.39        2953.75           1288          46.00       176.11
  182.42        2954.00           1291          38.00       141.24
  182.45        2954.25           1295          46.00       176.11
  182.48        2954.50           1298          43.00       163.03
  182.51        2954.75           1301          45.00       171.75
  182.54        2955.00           1304          38.00       141.24
  182.57        2955.25           1308          46.00       176.11
  182.60        2955.50           1311          46.00       176.11
  182.63        2955.75           1314          44.00       167.39
  182.66        2956.00           1318          42.00       158.68
  182.69        2956.25           1321          43.00       163.03
  182.72        2956.50           1324          47.00       180.47
  182.75        2956.75           1328          42.00       158.68
  182.79        2957.00           1331          42.00       158.68
  182.81        2957.25           1334          48.00       184.83
  182.84        2957.50           1338          50.00       193.55
  182.87        2957.75           1341          43.00       163.03
  182.91        2958.00           1344          47.00       180.47
  182.94        2958.25           1347          47.00       180.47
  182.97        2958.50           1351          46.00       176.11
  183.00        2958.75           1354          48.00       184.83
  183.03        2959.00           1357          48.00       184.83
  183.06        2959.25           1361          53.00       206.63
  183.09        2959.50           1364          54.00       210.99
  183.12        2959.75           1367          57.00       224.06
  183.15        2960.00           1371          75.00       302.53
  183.18        2960.25           1374          82.00       333.05
  183.21        2960.50           1377          94.00       385.36
  183.24        2960.75           1381         170.00       716.67
  183.27        2961.00           1384         372.00      1597.28
  183.30        2961.25           1387         854.00      3698.73
  183.33        2961.50           1390        1552.00      6742.34
  183.36        2961.75           1394        2858.00     12438.51
  183.39        2962.00           1397        4032.00     17560.51
  183.42        2962.25           1400        5542.00     24150.59
  183.45        2962.50           1404        7696.00     33555.49
  183.48        2962.75           1407        9316.00     40632.08
  183.51        2963.00           1410       10963.00     47829.49
  183.54        2963.25           1414       13120.00     57260.00
  183.57        2963.50           1417       14797.00     64595.37
  183.61        2963.75           1420       16390.00     71566.10
  183.64        2964.00           1424       18587.00     81184.33
  183.67        2964.25           1427       20368.00     88985.18
  183.70        2964.50           1430       22272.00     97328.53
  183.73        2964.75           1434       24399.00    106653.70
  183.76        2965.00           1437       26142.00    114299.00
  183.79        2965.25           1440       28100.00    122891.20
  183.82        2965.50           1444       30411.00    133037.80
  183.85        2965.75           1447       32205.00    140918.50
  183.88        2966.00           1450       33531.00    146745.60
  183.91        2966.25           1453       34759.00    152143.70
  183.94        2966.50           1457       35974.00    157486.30
  183.97        2966.75           1460       36447.00    159566.60
  184.00        2967.00           1463       36578.00    160142.80
  184.03        2967.25           1467       36736.00    160837.80
  184.06        2967.50           1470       36511.00    159848.10
  184.09        2967.75           1473       35737.00    156444.00
  184.12        2968.00           1477       34603.00    151457.90
  184.16        2968.25           1480       33207.00    145321.60
  184.19        2968.50           1483       31727.00    138818.40
  184.22        2968.75           1487       29465.00    128883.60
  184.25        2969.00           1490       27812.00    121627.10
  184.28        2969.25           1493       26109.00    114154.20
  184.31        2969.50           1497       23912.00    104518.20
  184.34        2969.75           1500       22345.00     97648.49
  184.37        2970.00           1503       20766.00     90728.90
  184.40        2970.25           1507       18522.00     80899.70
  184.43        2970.50           1510       16893.00     73767.74
  184.46        2970.75           1513       15163.00     66196.70
  184.49        2971.00           1517       13205.00     57631.73
  184.52        2971.25           1520       11512.00     50229.28
  184.55        2971.50           1523        9810.00     42790.57
  184.58        2971.75           1526        8107.00     35350.58
  184.62        2972.00           1530        5932.00     25853.06
  184.65        2972.25           1533        4281.00     18647.05
  184.68        2972.50           1536        3011.00     13105.94
  184.71        2972.75           1540        1637.00      7113.01
  184.74        2973.00           1543         966.00      4187.07
  184.77        2973.25           1546         535.00      2307.91
  184.80        2973.50           1550         234.00       995.67
  184.83        2973.75           1553         117.00       485.62
  184.86        2974.00           1556          76.00       306.89
  184.89        2974.25           1560          54.00       210.99
  184.92        2974.50           1563          55.00       215.35
  184.95        2974.75           1566          50.00       193.55
  184.98        2975.00           1570          46.00       176.11
  185.02        2975.25           1573          42.00       158.68
  185.05        2975.50           1576          43.00       163.03
  185.08        2975.75           1580          41.00       154.32
  185.11        2976.00           1583          47.00       180.47
  185.14        2976.25           1586          45.00       171.75
  185.17        2976.50           1590          36.00       132.52
  185.20        2976.75           1593          46.00       176.11
  185.23        2977.00           1596          39.00       145.60
  185.26        2977.25           1600          46.00       176.11
  185.29        2977.50           1603          43.00       163.03
  185.32        2977.75           1606          45.00       171.75
  185.35        2978.00           1610          48.00       184.83
  185.38        2978.25           1613          52.00       202.27
  185.41        2978.50           1616          40.00       149.96
  185.44        2978.75           1620          44.00       167.39
  185.47        2979.00           1623          43.00       163.03
  185.50        2979.25           1626          47.00       180.47
  185.53        2979.50           1630          41.00       154.32
  185.56        2979.75           1633          43.00       163.03
  185.59        2980.00           1636          43.00       163.03
  185.62        2980.25           1640          46.00       176.11
  185.65        2980.50           1643          48.00       184.83
  185.68        2980.75           1646          36.00       132.52
  185.71        2981.00           1650          37.00       136.88
  185.74        2981.25           1653          39.00       145.60
  185.77        2981.50           1656          45.00       171.75
  185.80        2981.75           1660          47.00       180.47
  185.83        2982.00           1663          40.00       149.96
  185.87        2982.25           1666          41.00       154.32
  185.90        2982.50           1670          40.00       149.96
  185.93        2982.75           1673          46.00       176.11
  185.96        2983.00           1676          43.00       163.03
  185.99        2983.25           1680          46.00       176.11
  186.02        2983.50           1683          36.00       132.52
  186.05        2983.75           1686          36.00       132.52
  186.08        2984.00           1690          39.00       145.60
HS scan finished at 03:06:17
end
************************************************************
  HS Scan of (1) Internal mercury lamp
************************************************************
Integration time is 0.2294 seconds per sample
dh210619El Arenosillo 37.1 6.73 3.072425pr1000
************************************************************
Dead Time -------------------------  2.8E-08 
Number of Cycles Used -------------  4 
Starting Wavelength (Angstroms) ---  2950 
Final Wavelength (Angstoms) -------  2984 
Wavelength Increment (Angstroms) --  .25 
Filter Wheel #1 Position ---------- (1) Ground quartz diffuser (ND=2.32)
Filter Wheel #2 Position ---------- (1) Neutral Density 0.494



************************************************************
HS scan start time = 21:36:29
Dark Count =  6.6 


Time (GMT)  Wavelength (Ang)  Step Number  Raw Counts  Counts/Second

 1296.84        2950.00           1238          43.00       158.68
 1296.91        2950.25           1242          38.00       136.88
 1296.94        2950.50           1245          42.00       154.32
 1296.97        2950.75           1248          37.00       132.52
 1297.00        2951.00           1252          40.00       145.60
 1297.03        2951.25           1255          45.00       167.39
 1297.06        2951.50           1258          35.00       123.80
 1297.09        2951.75           1261          45.00       167.39
 1297.12        2952.00           1265          42.00       154.32
 1297.15        2952.25           1268          44.00       163.03
 1297.18        2952.50           1271          41.00       149.96
 1297.21        2952.75           1275          41.00       149.96
 1297.24        2953.00           1278          45.00       167.39
 1297.28        2953.25           1281          39.00       141.24
 1297.31        2953.50           1285          39.00       141.24
 1297.34        2953.75           1288          36.00       128.16
 1297.37        2954.00           1291          42.00       154.32
 1297.40        2954.25           1295          45.00       167.39
 1297.43        2954.50           1298          49.00       184.83
 1297.46        2954.75           1301          45.00       167.39
 1297.49        2955.00           1304          41.00       149.96
 1297.52        2955.25           1308          38.00       136.88
 1297.55        2955.50           1311          44.00       163.03
 1297.58        2955.75           1314          42.00       154.32
 1297.61        2956.00           1318          44.00       163.03
 1297.65        2956.25           1321          42.00       154.32
 1297.68        2956.50           1324          35.00       123.80
 1297.71        2956.75           1328          42.00       154.32
 1297.74        2957.00           1331          46.00       171.75
 1297.77        2957.25           1334          42.00       154.32
 1297.80        2957.50           1338          42.00       154.32
 1297.83        2957.75           1341          35.00       123.80
 1297.86        2958.00           1344          37.00       132.52
 1297.89        2958.25           1347          43.00       158.68
 1297.92        2958.50           1351          43.00       158.68
 1297.95        2958.75           1354          47.00       176.11
 1297.99        2959.00           1357          56.00       215.35
 1298.02        2959.25           1361          60.00       232.78
 1298.05        2959.50           1364          54.00       206.63
 1298.08        2959.75           1367          61.00       237.14
 1298.11        2960.00           1371          65.00       254.58
 1298.14        2960.25           1374          78.00       311.25
 1298.17        2960.50           1377          87.00       350.48
 1298.20        2960.75           1381         231.00       978.23
 1298.23        2961.00           1384         520.00      2238.15
 1298.26        2961.25           1387        1131.00      4902.16
 1298.29        2961.50           1390        1906.00      8281.78
 1298.33        2961.75           1394        3480.00     15147.66
 1298.36        2962.00           1397        5042.00     21963.81
 1298.39        2962.25           1400        6783.00     29564.13
 1298.42        2962.50           1404        9030.00     39378.18
 1298.45        2962.75           1407       10776.00     47007.79
 1298.48        2963.00           1410       12606.00     55007.94
 1298.51        2963.25           1414       14913.00     65098.50
 1298.54        2963.50           1417       16366.00     71456.70
 1298.57        2963.75           1420       18099.00     79043.10
 1298.60        2964.00           1424       20355.00     88923.84
 1298.64        2964.25           1427       22161.00     96837.63
 1298.67        2964.50           1430       23810.00    104066.50
 1298.70        2964.75           1434       26551.00    116089.00
 1298.73        2965.00           1437       28368.00    124063.20
 1298.76        2965.25           1440       30223.00    132207.80
 1298.79        2965.50           1444       32666.00    142939.70
 1298.82        2965.75           1447       33922.00    148459.80
 1298.85        2966.00           1450       35673.00    156158.20
 1298.88        2966.25           1453       36662.00    160507.90
 1298.92        2966.50           1457       37689.00    165025.80
 1298.95        2966.75           1460       38232.00    167415.00
 1298.98        2967.00           1463       38458.00    168409.50
 1299.01        2967.25           1467       38466.00    168444.70
 1299.04        2967.50           1470       37908.00    165989.40
 1299.07        2967.75           1473       36960.00    161818.70
 1299.10        2968.00           1477       35425.00    155067.60
 1299.13        2968.25           1480       34139.00    149413.70
 1299.16        2968.50           1483       32628.00    142772.80
 1299.19        2968.75           1487       30218.00    132185.80
 1299.23        2969.00           1490       28666.00    125371.30
 1299.26        2969.25           1493       26637.00    116466.40
 1299.29        2969.50           1497       24116.00    105408.30
 1299.32        2969.75           1500       22573.00     98643.49
 1299.35        2970.00           1503       20454.00     89357.56
 1299.38        2970.25           1507       18382.00     80282.28
 1299.41        2970.50           1510       16753.00     73150.55
 1299.44        2970.75           1513       14918.00     65120.37
 1299.48        2971.00           1517       12724.00     55523.93
 1299.51        2971.25           1520       11097.00     48410.83
 1299.54        2971.50           1523        9441.00     41173.86
 1299.57        2971.75           1526        7703.00     33581.69
 1299.60        2972.00           1530        5421.00     23618.06
 1299.63        2972.25           1533        3908.00     17015.08
 1299.66        2972.50           1536        2701.00     11749.29
 1299.69        2972.75           1540        1483.00      6437.08
 1299.72        2973.00           1543         809.00      3498.16
 1299.76        2973.25           1546         441.00      1893.74
 1299.79        2973.50           1550         195.00       821.29
 1299.82        2973.75           1553         115.00       472.54
 1299.85        2974.00           1556          69.00       272.02
 1299.88        2974.25           1560          55.00       210.99
 1299.91        2974.50           1563          49.00       184.83
 1299.94        2974.75           1566          50.00       189.19
 1299.97        2975.00           1570          43.00       158.68
 1300.00        2975.25           1573          46.00       171.75
 1300.03        2975.50           1576          35.00       123.80
 1300.06        2975.75           1580          44.00       163.03
 1300.10        2976.00           1583          45.00       167.39
 1300.12        2976.25           1586          41.00       149.96
 1300.16        2976.50           1590          42.00       154.32
 1300.19        2976.75           1593          44.00       163.03
 1300.22        2977.00           1596          46.00       171.75
 1300.25        2977.25           1600          43.00       158.68
 1300.28        2977.50           1603          35.00       123.80
 1300.31        2977.75           1606          46.00       171.75
 1300.34        2978.00           1610          43.00       158.68
 1300.37        2978.25           1613          46.00       171.75
 1300.40        2978.50           1616          37.00       132.52
 1300.43        2978.75           1620          44.00       163.03
 1300.47        2979.00           1623          42.00       154.32
 1300.50        2979.25           1626          45.00       167.39
 1300.53        2979.50           1630          40.00       145.60
 1300.56        2979.75           1633          42.00       154.32
 1300.59        2980.00           1636          46.00       171.75
 1300.62        2980.25           1640          44.00       163.03
 1300.65        2980.50           1643          41.00       149.96
 1300.68        2980.75           1646          43.00       158.68
 1300.71        2981.00           1650          37.00       132.52
 1300.74        2981.25           1653          40.00       145.60
 1300.77        2981.50           1656          46.00       171.75
 1300.80        2981.75           1660          36.00       128.16
 1300.84        2982.00           1663          47.00       176.11
 1300.87        2982.25           1666          43.00       158.68
 1300.90        2982.50           1670          36.00       128.16
 1300.93        2982.75           1673          40.00       145.60
 1300.96        2983.00           1676          39.00       141.24
 1300.99        2983.25           1680          48.00       180.47
 1301.02        2983.50           1683          39.00       141.24
 1301.05        2983.75           1686          39.00       141.24
 1301.08        2984.00           1690          45.00       167.39
HS scan finished at 21:41:17
end
