************************************************************
  HS Scan of (1) Internal mercury lamp
************************************************************
Integration time is 0.2294 seconds per sample
dh190619El Arenosillo 37.1 6.73 3.018777pr1000
************************************************************
Dead Time -------------------------  2.8E-08 
Number of Cycles Used -------------  4 
Starting Wavelength (Angstroms) ---  2950 
Final Wavelength (Angstoms) -------  2984 
Wavelength Increment (Angstroms) --  .25 
Filter Wheel #1 Position ---------- (1) Ground quartz diffuser (ND=2.32)
Filter Wheel #2 Position ---------- (1) Neutral Density 0.494



************************************************************
HS scan start time = 02:25:37
Dark Count =  5 


Time (GMT)  Wavelength (Ang)  Step Number  Raw Counts  Counts/Second

  145.98        2950.00           1238          45.00       174.37
  146.05        2950.25           1242          37.00       139.49
  146.08        2950.50           1245          44.00       170.01
  146.11        2950.75           1248          38.00       143.85
  146.14        2951.00           1252          46.00       178.73
  146.17        2951.25           1255          42.00       161.29
  146.20        2951.50           1258          45.00       174.37
  146.23        2951.75           1261          37.00       139.49
  146.26        2952.00           1265          45.00       174.37
  146.29        2952.25           1268          46.00       178.73
  146.32        2952.50           1271          44.00       170.01
  146.35        2952.75           1275          44.00       170.01
  146.38        2953.00           1278          37.00       139.49
  146.41        2953.25           1281          43.00       165.65
  146.44        2953.50           1285          43.00       165.65
  146.47        2953.75           1288          47.00       183.09
  146.50        2954.00           1291          38.00       143.85
  146.53        2954.25           1295          39.00       148.21
  146.56        2954.50           1298          44.00       170.01
  146.59        2954.75           1301          40.00       152.57
  146.62        2955.00           1304          35.00       130.78
  146.66        2955.25           1308          36.00       135.14
  146.69        2955.50           1311          38.00       143.85
  146.72        2955.75           1314          47.00       183.09
  146.75        2956.00           1318          38.00       143.85
  146.78        2956.25           1321          44.00       170.01
  146.81        2956.50           1324          45.00       174.37
  146.84        2956.75           1328          48.00       187.45
  146.87        2957.00           1331          40.00       152.57
  146.90        2957.25           1334          43.00       165.65
  146.93        2957.50           1338          42.00       161.29
  146.96        2957.75           1341          42.00       161.29
  146.99        2958.00           1344          44.00       170.01
  147.02        2958.25           1347          45.00       174.37
  147.05        2958.50           1351          43.00       165.65
  147.08        2958.75           1354          50.00       196.16
  147.11        2959.00           1357          49.00       191.81
  147.14        2959.25           1361          50.00       196.16
  147.17        2959.50           1364          58.00       231.04
  147.20        2959.75           1367          61.00       244.12
  147.23        2960.00           1371          65.00       261.55
  147.26        2960.25           1374          86.00       353.10
  147.29        2960.50           1377          96.00       396.69
  147.32        2960.75           1381         219.00       932.89
  147.35        2961.00           1384         554.00      2393.36
  147.38        2961.25           1387        1059.00      4595.19
  147.42        2961.50           1390        1802.00      7835.20
  147.45        2961.75           1394        3243.00     14120.66
  147.48        2962.00           1397        4615.00     20107.22
  147.51        2962.25           1400        6185.00     26960.19
  147.54        2962.50           1404        8524.00     37174.68
  147.57        2962.75           1407       10188.00     44444.99
  147.60        2963.00           1410       12231.00     53375.26
  147.63        2963.25           1414       14536.00     63456.16
  147.66        2963.50           1417       16074.00     70185.75
  147.69        2963.75           1420       17955.00     78419.61
  147.72        2964.00           1424       20375.00     89018.47
  147.75        2964.25           1427       22083.00     96502.78
  147.78        2964.50           1430       24106.00    105371.50
  147.81        2964.75           1434       26560.00    116135.50
  147.84        2965.00           1437       28443.00    124399.40
  147.87        2965.25           1440       30133.00    131819.60
  147.90        2965.50           1444       32435.00    141931.70
  147.94        2965.75           1447       33983.00    148735.00
  147.97        2966.00           1450       35570.00    155712.30
  148.00        2966.25           1453       36546.00    160004.70
  148.03        2966.50           1457       37500.00    164201.40
  148.06        2966.75           1460       37913.00    166018.40
  148.09        2967.00           1463       38165.00    167127.30
  148.12        2967.25           1467       38004.00    166418.90
  148.15        2967.50           1470       37446.00    163963.80
  148.18        2967.75           1473       36781.00    161038.40
  148.21        2968.00           1477       35640.00    156020.10
  148.24        2968.25           1480       34539.00    151179.10
  148.27        2968.50           1483       32932.00    144115.70
  148.30        2968.75           1487       30805.00    134770.90
  148.33        2969.00           1490       29214.00    127784.20
  148.36        2969.25           1493       27507.00    120291.10
  148.39        2969.50           1497       24974.00    109178.10
  148.42        2969.75           1500       23246.00    101600.80
  148.46        2970.00           1503       21427.00     93627.87
  148.49        2970.25           1507       19005.00     83017.52
  148.52        2970.50           1510       17212.00     75166.76
  148.55        2970.75           1513       15516.00     67743.90
  148.58        2971.00           1517       13325.00     58159.16
  148.61        2971.25           1520       11660.00     50878.89
  148.64        2971.50           1523        9817.00     42823.77
  148.67        2971.75           1526        7862.00     34283.11
  148.70        2972.00           1530        5451.00     23755.99
  148.73        2972.25           1533        3835.00     16703.54
  148.76        2972.50           1536        2578.00     11219.74
  148.79        2972.75           1540        1447.00      6287.07
  148.82        2973.00           1543         815.00      3531.30
  148.85        2973.25           1546         416.00      1791.72
  148.88        2973.50           1550         183.00       775.95
  148.91        2973.75           1553         106.00       440.28
  148.94        2974.00           1556          67.00       270.27
  148.97        2974.25           1560          53.00       209.24
  149.00        2974.50           1563          46.00       178.73
  149.03        2974.75           1566          52.00       204.88
  149.06        2975.00           1570          47.00       183.09
  149.09        2975.25           1573          52.00       204.88
  149.12        2975.50           1576          44.00       170.01
  149.15        2975.75           1580          47.00       183.09
  149.18        2976.00           1583          42.00       161.29
  149.21        2976.25           1586          43.00       165.65
  149.24        2976.50           1590          38.00       143.85
  149.27        2976.75           1593          45.00       174.37
  149.31        2977.00           1596          40.00       152.57
  149.34        2977.25           1600          39.00       148.21
  149.37        2977.50           1603          43.00       165.65
  149.40        2977.75           1606          44.00       170.01
  149.43        2978.00           1610          46.00       178.73
  149.46        2978.25           1613          41.00       156.93
  149.49        2978.50           1616          41.00       156.93
  149.52        2978.75           1620          58.00       231.04
  149.55        2979.00           1623          35.00       130.78
  149.58        2979.25           1626          43.00       165.65
  149.61        2979.50           1630          46.00       178.73
  149.64        2979.75           1633          43.00       165.65
  149.67        2980.00           1636          40.00       152.57
  149.70        2980.25           1640          49.00       191.81
  149.73        2980.50           1643          38.00       143.85
  149.76        2980.75           1646          39.00       148.21
  149.79        2981.00           1650          45.00       174.37
  149.82        2981.25           1653          41.00       156.93
  149.85        2981.50           1656          35.00       130.78
  149.88        2981.75           1660          42.00       161.29
  149.91        2982.00           1663          39.00       148.21
  149.94        2982.25           1666          43.00       165.65
  149.97        2982.50           1670          36.00       135.14
  150.00        2982.75           1673          41.00       156.93
  150.03        2983.00           1676          41.00       156.93
  150.06        2983.25           1680          40.00       152.57
  150.09        2983.50           1683          43.00       165.65
  150.12        2983.75           1686          38.00       143.85
  150.15        2984.00           1690          45.00       174.37
HS scan finished at 02:30:21
end
************************************************************
  HS Scan of (1) Internal mercury lamp
************************************************************
Integration time is 0.2294 seconds per sample
dh190619El Arenosillo 37.1 6.73 2.965129pr1000
************************************************************
Dead Time -------------------------  2.8E-08 
Number of Cycles Used -------------  4 
Starting Wavelength (Angstroms) ---  2950 
Final Wavelength (Angstoms) -------  2984 
Wavelength Increment (Angstroms) --  .25 
Filter Wheel #1 Position ---------- (1) Ground quartz diffuser (ND=2.32)
Filter Wheel #2 Position ---------- (1) Neutral Density 0.494



************************************************************
HS scan start time = 21:39:38
Dark Count =  5.7 


Time (GMT)  Wavelength (Ang)  Step Number  Raw Counts  Counts/Second

 1299.99        2950.00           1238          43.00       162.60
 1300.06        2950.25           1242          38.00       140.80
 1300.09        2950.50           1245          36.00       132.08
 1300.12        2950.75           1248          44.00       166.96
 1300.15        2951.00           1252          42.00       158.24
 1300.19        2951.25           1255          41.00       153.88
 1300.22        2951.50           1258          48.00       184.40
 1300.25        2951.75           1261          44.00       166.96
 1300.28        2952.00           1265          48.00       184.40
 1300.31        2952.25           1268          39.00       145.16
 1300.34        2952.50           1271          38.00       140.80
 1300.37        2952.75           1275          44.00       166.96
 1300.40        2953.00           1278          38.00       140.80
 1300.43        2953.25           1281          46.00       175.68
 1300.46        2953.50           1285          41.00       153.88
 1300.49        2953.75           1288          37.00       136.44
 1300.52        2954.00           1291          48.00       184.40
 1300.56        2954.25           1295          46.00       175.68
 1300.59        2954.50           1298          41.00       153.88
 1300.62        2954.75           1301          39.00       145.16
 1300.65        2955.00           1304          39.00       145.16
 1300.68        2955.25           1308          41.00       153.88
 1300.71        2955.50           1311          43.00       162.60
 1300.74        2955.75           1314          39.00       145.16
 1300.77        2956.00           1318          42.00       158.24
 1300.80        2956.25           1321          46.00       175.68
 1300.83        2956.50           1324          43.00       162.60
 1300.87        2956.75           1328          48.00       184.40
 1300.90        2957.00           1331          48.00       184.40
 1300.92        2957.25           1334          38.00       140.80
 1300.95        2957.50           1338          41.00       153.88
 1300.98        2957.75           1341          39.00       145.16
 1301.02        2958.00           1344          36.00       132.08
 1301.05        2958.25           1347          42.00       158.24
 1301.08        2958.50           1351          35.00       127.72
 1301.11        2958.75           1354          44.00       166.96
 1301.14        2959.00           1357          46.00       175.68
 1301.17        2959.25           1361          58.00       227.99
 1301.20        2959.50           1364          49.00       188.75
 1301.23        2959.75           1367          62.00       245.42
 1301.26        2960.00           1371          66.00       262.86
 1301.29        2960.25           1374          81.00       328.25
 1301.32        2960.50           1377          90.00       367.48
 1301.36        2960.75           1381         205.00       868.81
 1301.39        2961.00           1384         486.00      2093.85
 1301.42        2961.25           1387        1054.00      4570.33
 1301.45        2961.50           1390        1845.00      8019.67
 1301.48        2961.75           1394        3309.00     14405.55
 1301.51        2962.00           1397        4728.00     20597.32
 1301.54        2962.25           1400        6216.00     27092.47
 1301.57        2962.50           1404        8595.00     37481.77
 1301.60        2962.75           1407       10411.00     45416.48
 1301.63        2963.00           1410       12016.00     52432.19
 1301.67        2963.25           1414       14205.00     62005.11
 1301.70        2963.50           1417       15840.00     69158.65
 1301.73        2963.75           1420       17432.00     76126.79
 1301.76        2964.00           1424       19498.00     85173.69
 1301.79        2964.25           1427       21040.00     91929.00
 1301.82        2964.50           1430       22839.00     99813.44
 1301.85        2964.75           1434       25229.00    110293.50
 1301.88        2965.00           1437       27141.00    118681.90
 1301.91        2965.25           1440       28718.00    125603.60
 1301.94        2965.50           1444       31073.00    135945.00
 1301.97        2965.75           1447       32795.00    143510.60
 1302.01        2966.00           1450       34066.00    149096.70
 1302.04        2966.25           1453       35247.00    154288.90
 1302.07        2966.50           1457       36330.00    159051.60
 1302.10        2966.75           1460       36668.00    160538.20
 1302.13        2967.00           1463       37120.00    162526.50
 1302.16        2967.25           1467       37061.00    162267.00
 1302.19        2967.50           1470       36633.00    160384.30
 1302.22        2967.75           1473       35836.00    156879.00
 1302.26        2968.00           1477       34507.00    151035.40
 1302.29        2968.25           1480       33127.00    144969.60
 1302.32        2968.50           1483       31565.00    138106.30
 1302.35        2968.75           1487       29291.00    128119.20
 1302.38        2969.00           1490       27754.00    121372.10
 1302.41        2969.25           1493       25827.00    112916.60
 1302.44        2969.50           1497       23525.00    102820.90
 1302.47        2969.75           1500       21764.00     95101.64
 1302.50        2970.00           1503       20069.00     87674.86
 1302.53        2970.25           1507       17972.00     78490.98
 1302.56        2970.50           1510       16137.00     70458.40
 1302.59        2970.75           1513       14424.00     62963.13
 1302.63        2971.00           1517       12359.00     53931.86
 1302.66        2971.25           1520       10736.00     46836.89
 1302.69        2971.50           1523        9102.00     39696.67
 1302.72        2971.75           1526        7525.00     32808.24
 1302.75        2972.00           1530        5319.00     23176.76
 1302.78        2972.25           1533        3798.00     16539.05
 1302.81        2972.50           1536        2592.00     11277.76
 1302.84        2972.75           1540        1372.00      5956.97
 1302.87        2973.00           1543         776.00      3358.21
 1302.90        2973.25           1546         441.00      1897.66
 1302.93        2973.50           1550         196.00       829.57
 1302.97        2973.75           1553         108.00       445.95
 1303.00        2974.00           1556          68.00       271.58
 1303.03        2974.25           1560          61.00       241.07
 1303.06        2974.50           1563          49.00       188.75
 1303.09        2974.75           1566          48.00       184.40
 1303.12        2975.00           1570          43.00       162.60
 1303.15        2975.25           1573          47.00       180.04
 1303.18        2975.50           1576          42.00       158.24
 1303.21        2975.75           1580          45.00       171.32
 1303.24        2976.00           1583          47.00       180.04
 1303.27        2976.25           1586          35.00       127.72
 1303.31        2976.50           1590          44.00       166.96
 1303.33        2976.75           1593          50.00       193.11
 1303.36        2977.00           1596          40.00       149.52
 1303.40        2977.25           1600          45.00       171.32
 1303.43        2977.50           1603          43.00       162.60
 1303.46        2977.75           1606          44.00       166.96
 1303.49        2978.00           1610          43.00       162.60
 1303.52        2978.25           1613          39.00       145.16
 1303.55        2978.50           1616          43.00       162.60
 1303.58        2978.75           1620          48.00       184.40
 1303.61        2979.00           1623          41.00       153.88
 1303.64        2979.25           1626          42.00       158.24
 1303.67        2979.50           1630          44.00       166.96
 1303.70        2979.75           1633          46.00       175.68
 1303.73        2980.00           1636          46.00       175.68
 1303.76        2980.25           1640          42.00       158.24
 1303.80        2980.50           1643          46.00       175.68
 1303.83        2980.75           1646          40.00       149.52
 1303.86        2981.00           1650          42.00       158.24
 1303.89        2981.25           1653          42.00       158.24
 1303.92        2981.50           1656          38.00       140.80
 1303.95        2981.75           1660          48.00       184.40
 1303.98        2982.00           1663          41.00       153.88
 1304.02        2982.25           1666          50.00       193.11
 1304.05        2982.50           1670          38.00       140.80
 1304.08        2982.75           1673          42.00       158.24
 1304.11        2983.00           1676          46.00       175.68
 1304.14        2983.25           1680          41.00       153.88
 1304.17        2983.50           1683          42.00       158.24
 1304.20        2983.75           1686          42.00       158.24
 1304.23        2984.00           1690          41.00       153.88
HS scan finished at 21:44:26
end
