************************************************************
  HS Scan of (1) Internal mercury lamp
************************************************************
Integration time is 0.2294 seconds per sample
dh260619El Arenosillo 37.1 6.73 3.018777pr1000
************************************************************
Dead Time -------------------------  2.8E-08 
Number of Cycles Used -------------  4 
Starting Wavelength (Angstroms) ---  2950 
Final Wavelength (Angstoms) -------  2984 
Wavelength Increment (Angstroms) --  .25 
Filter Wheel #1 Position ---------- (1) Ground quartz diffuser (ND=2.32)
Filter Wheel #2 Position ---------- (1) Neutral Density 0.494



************************************************************
HS scan start time = 02:36:23
Dark Count =  6.1 


Time (GMT)  Wavelength (Ang)  Step Number  Raw Counts  Counts/Second

  156.75        2950.00           1238          42.00       156.50
  156.82        2950.25           1242          43.00       160.86
  156.85        2950.50           1245          39.00       143.42
  156.88        2950.75           1248          39.00       143.42
  156.91        2951.00           1252          36.00       130.34
  156.94        2951.25           1255          42.00       156.50
  156.97        2951.50           1258          44.00       165.21
  157.00        2951.75           1261          43.00       160.86
  157.04        2952.00           1265          46.00       173.93
  157.06        2952.25           1268          46.00       173.93
  157.09        2952.50           1271          44.00       165.21
  157.13        2952.75           1275          55.00       213.17
  157.16        2953.00           1278          44.00       165.21
  157.19        2953.25           1281          41.00       152.14
  157.22        2953.50           1285          45.00       169.57
  157.25        2953.75           1288          43.00       160.86
  157.28        2954.00           1291          46.00       173.93
  157.31        2954.25           1295          42.00       156.50
  157.34        2954.50           1298          35.00       125.98
  157.37        2954.75           1301          44.00       165.21
  157.40        2955.00           1304          49.00       187.01
  157.43        2955.25           1308          46.00       173.93
  157.47        2955.50           1311          40.00       147.78
  157.50        2955.75           1314          45.00       169.57
  157.53        2956.00           1318          41.00       152.14
  157.56        2956.25           1321          37.00       134.70
  157.59        2956.50           1324          39.00       143.42
  157.62        2956.75           1328          44.00       165.21
  157.65        2957.00           1331          45.00       169.57
  157.68        2957.25           1334          41.00       152.14
  157.71        2957.50           1338          43.00       160.86
  157.74        2957.75           1341          48.00       182.65
  157.77        2958.00           1344          47.00       178.29
  157.80        2958.25           1347          42.00       156.50
  157.83        2958.50           1351          48.00       182.65
  157.87        2958.75           1354          52.00       200.09
  157.90        2959.00           1357          42.00       156.50
  157.93        2959.25           1361          55.00       213.17
  157.96        2959.50           1364          59.00       230.60
  157.99        2959.75           1367          63.00       248.04
  158.02        2960.00           1371          66.00       261.12
  158.05        2960.25           1374          75.00       300.35
  158.08        2960.50           1377          99.00       404.97
  158.11        2960.75           1381         262.00      1115.55
  158.14        2961.00           1384         669.00      2889.95
  158.17        2961.25           1387        1303.00      5654.34
  158.20        2961.50           1390        2311.00     10050.34
  158.23        2961.75           1394        3928.00     17104.53
  158.26        2962.00           1397        5346.00     23292.87
  158.30        2962.25           1400        7021.00     30605.56
  158.33        2962.50           1404        9331.00     40695.43
  158.36        2962.75           1407       11146.00     48627.19
  158.39        2963.00           1410       12837.00     56020.24
  158.42        2963.25           1414       14936.00     65201.32
  158.45        2963.50           1417       16802.00     73367.22
  158.48        2963.75           1420       18465.00     80647.91
  158.51        2964.00           1424       20551.00     89784.72
  158.54        2964.25           1427       22134.00     96721.49
  158.58        2964.50           1430       23968.00    104761.50
  158.61        2964.75           1434       26322.00    115086.50
  158.64        2965.00           1437       28058.00    122704.70
  158.67        2965.25           1440       30119.00    131753.20
  158.70        2965.50           1444       32299.00    141329.30
  158.73        2965.75           1447       33758.00    147741.10
  158.76        2966.00           1450       35039.00    153372.60
  158.79        2966.25           1453       36082.00    157959.10
  158.82        2966.50           1457       36966.00    161847.30
  158.86        2966.75           1460       37623.00    164737.60
  158.89        2967.00           1463       37966.00    166246.80
  158.92        2967.25           1467       37621.00    164728.90
  158.95        2967.50           1470       37128.00    162559.90
  158.98        2967.75           1473       36302.00    158926.70
  159.01        2968.00           1477       34590.00    151398.50
  159.04        2968.25           1480       33249.00    145504.00
  159.07        2968.50           1483       31495.00    137797.00
  159.10        2968.75           1487       29169.00    127581.80
  159.13        2969.00           1490       27503.00    120268.80
  159.17        2969.25           1493       25772.00    112673.60
  159.20        2969.50           1497       23314.00    101894.00
  159.23        2969.75           1500       21431.00     93640.58
  159.26        2970.00           1503       19873.00     86814.52
  159.29        2970.25           1507       17757.00     77547.88
  159.32        2970.50           1510       15924.00     69524.50
  159.35        2970.75           1513       14272.00     62296.46
  159.39        2971.00           1517       12077.00     52697.15
  159.42        2971.25           1520       10360.00     45191.85
  159.45        2971.50           1523        8683.00     37864.45
  159.48        2971.75           1526        6919.00     30160.16
  159.51        2972.00           1530        4953.00     21577.55
  159.54        2972.25           1533        3505.00     15258.92
  159.57        2972.50           1536        2277.00      9902.05
  159.60        2972.75           1540        1183.00      5131.08
  159.63        2973.00           1543         690.00      2981.50
  159.66        2973.25           1546         366.00      1568.94
  159.69        2973.50           1550         163.00       683.97
  159.73        2973.75           1553          84.00       339.58
  159.76        2974.00           1556          67.00       265.48
  159.79        2974.25           1560          57.00       221.88
  159.82        2974.50           1563          45.00       169.57
  159.85        2974.75           1566          55.00       213.17
  159.88        2975.00           1570          46.00       173.93
  159.91        2975.25           1573          40.00       147.78
  159.94        2975.50           1576          42.00       156.50
  159.97        2975.75           1580          43.00       160.86
  160.00        2976.00           1583          38.00       139.06
  160.04        2976.25           1586          44.00       165.21
  160.07        2976.50           1590          44.00       165.21
  160.10        2976.75           1593          47.00       178.29
  160.13        2977.00           1596          38.00       139.06
  160.16        2977.25           1600          45.00       169.57
  160.19        2977.50           1603          38.00       139.06
  160.22        2977.75           1606          39.00       143.42
  160.25        2978.00           1610          49.00       187.01
  160.28        2978.25           1613          47.00       178.29
  160.31        2978.50           1616          40.00       147.78
  160.34        2978.75           1620          46.00       173.93
  160.37        2979.00           1623          38.00       139.06
  160.40        2979.25           1626          43.00       160.86
  160.43        2979.50           1630          41.00       152.14
  160.46        2979.75           1633          39.00       143.42
  160.49        2980.00           1636          41.00       152.14
  160.53        2980.25           1640          43.00       160.86
  160.56        2980.50           1643          33.00       117.26
  160.59        2980.75           1646          40.00       147.78
  160.62        2981.00           1650          46.00       173.93
  160.65        2981.25           1653          40.00       147.78
  160.68        2981.50           1656          46.00       173.93
  160.71        2981.75           1660          41.00       152.14
  160.74        2982.00           1663          45.00       169.57
  160.77        2982.25           1666          48.00       182.65
  160.80        2982.50           1670          46.00       173.93
  160.83        2982.75           1673          44.00       165.21
  160.87        2983.00           1676          48.00       182.65
  160.90        2983.25           1680          40.00       147.78
  160.93        2983.50           1683          53.00       204.45
  160.96        2983.75           1686          37.00       134.70
  160.99        2984.00           1690          39.00       143.42
HS scan finished at 02:41:11
end
************************************************************
  HS Scan of (1) Internal mercury lamp
************************************************************
Integration time is 0.2294 seconds per sample
dh260619El Arenosillo 37.1 6.73 3.072425pr1000
************************************************************
Dead Time -------------------------  2.8E-08 
Number of Cycles Used -------------  4 
Starting Wavelength (Angstroms) ---  2950 
Final Wavelength (Angstoms) -------  2984 
Wavelength Increment (Angstroms) --  .25 
Filter Wheel #1 Position ---------- (1) Ground quartz diffuser (ND=2.32)
Filter Wheel #2 Position ---------- (1) Neutral Density 0.494



************************************************************
HS scan start time = 20:52:54
Dark Count =  5.7 


Time (GMT)  Wavelength (Ang)  Step Number  Raw Counts  Counts/Second

 1253.26        2950.00           1238          48.00       184.40
 1253.33        2950.25           1242          48.00       184.40
 1253.36        2950.50           1245          41.00       153.88
 1253.39        2950.75           1248          49.00       188.75
 1253.42        2951.00           1252          44.00       166.96
 1253.46        2951.25           1255          43.00       162.60
 1253.49        2951.50           1258          47.00       180.04
 1253.52        2951.75           1261          43.00       162.60
 1253.55        2952.00           1265          44.00       166.96
 1253.58        2952.25           1268          39.00       145.16
 1253.61        2952.50           1271          43.00       162.60
 1253.64        2952.75           1275          39.00       145.16
 1253.67        2953.00           1278          43.00       162.60
 1253.70        2953.25           1281          50.00       193.11
 1253.74        2953.50           1285          46.00       175.68
 1253.77        2953.75           1288          41.00       153.88
 1253.80        2954.00           1291          38.00       140.80
 1253.83        2954.25           1295          41.00       153.88
 1253.86        2954.50           1298          42.00       158.24
 1253.89        2954.75           1301          44.00       166.96
 1253.92        2955.00           1304          38.00       140.80
 1253.95        2955.25           1308          40.00       149.52
 1253.98        2955.50           1311          50.00       193.11
 1254.02        2955.75           1314          39.00       145.16
 1254.05        2956.00           1318          40.00       149.52
 1254.08        2956.25           1321          43.00       162.60
 1254.11        2956.50           1324          43.00       162.60
 1254.14        2956.75           1328          40.00       149.52
 1254.17        2957.00           1331          40.00       149.52
 1254.20        2957.25           1334          40.00       149.52
 1254.24        2957.50           1338          41.00       153.88
 1254.27        2957.75           1341          44.00       166.96
 1254.30        2958.00           1344          45.00       171.32
 1254.33        2958.25           1347          42.00       158.24
 1254.36        2958.50           1351          46.00       175.68
 1254.39        2958.75           1354          46.00       175.68
 1254.42        2959.00           1357          58.00       227.99
 1254.45        2959.25           1361          56.00       219.27
 1254.48        2959.50           1364          66.00       262.86
 1254.52        2959.75           1367          60.00       236.71
 1254.55        2960.00           1371          65.00       258.50
 1254.58        2960.25           1374          80.00       323.89
 1254.61        2960.50           1377          90.00       367.48
 1254.64        2960.75           1381         247.00      1051.91
 1254.67        2961.00           1384         575.00      2481.86
 1254.70        2961.25           1387        1132.00      4910.44
 1254.74        2961.50           1390        2063.00      8970.43
 1254.77        2961.75           1394        3631.00     15810.40
 1254.80        2962.00           1397        5035.00     21937.18
 1254.83        2962.25           1400        6612.00     28821.42
 1254.86        2962.50           1404        8847.00     38582.63
 1254.89        2962.75           1407       10704.00     46697.03
 1254.92        2963.00           1410       12471.00     54421.58
 1254.96        2963.25           1414       14649.00     63947.44
 1254.99        2963.50           1417       16171.00     70607.20
 1255.02        2963.75           1420       17879.00     78083.78
 1255.05        2964.00           1424       19996.00     87355.08
 1255.08        2964.25           1427       21451.00     93729.98
 1255.11        2964.50           1430       22985.00    100453.50
 1255.15        2964.75           1434       25505.00    111504.10
 1255.18        2965.00           1437       27338.00    119546.40
 1255.21        2965.25           1440       29138.00    127447.50
 1255.24        2965.50           1444       31529.00    137948.10
 1255.27        2965.75           1447       32986.00    144349.90
 1255.30        2966.00           1450       34422.00    150661.70
 1255.33        2966.25           1453       35614.00    155902.70
 1255.37        2966.50           1457       36581.00    160155.60
 1255.40        2966.75           1460       37123.00    162539.70
 1255.43        2967.00           1463       37469.00    164061.90
 1255.46        2967.25           1467       37233.00    163023.60
 1255.49        2967.50           1470       36842.00    161303.60
 1255.52        2967.75           1473       35923.00    157261.60
 1255.55        2968.00           1477       34574.00    151329.90
 1255.59        2968.25           1480       32992.00    144376.30
 1255.62        2968.50           1483       31410.00    137425.40
 1255.65        2968.75           1487       29342.00    128343.10
 1255.68        2969.00           1490       27564.00    120538.20
 1255.71        2969.25           1493       25691.00    112320.00
 1255.74        2969.50           1497       23489.00    102663.10
 1255.77        2969.75           1500       21606.00     94409.22
 1255.80        2970.00           1503       20087.00     87753.72
 1255.84        2970.25           1507       17665.00     77146.86
 1255.87        2970.50           1510       16037.00     70020.76
 1255.90        2970.75           1513       14373.00     62740.03
 1255.93        2971.00           1517       12204.00     53254.16
 1255.96        2971.25           1520       10585.00     46176.93
 1255.99        2971.50           1523        8960.00     39076.30
 1256.02        2971.75           1526        7319.00     31908.62
 1256.05        2972.00           1530        5180.00     22570.06
 1256.09        2972.25           1533        3745.00     16307.79
 1256.12        2972.50           1536        2480.00     10789.22
 1256.15        2972.75           1540        1251.00      5429.33
 1256.18        2973.00           1543         730.00      3157.65
 1256.21        2973.25           1546         419.00      1801.75
 1256.24        2973.50           1550         167.00       703.15
 1256.27        2973.75           1553         103.00       424.16
 1256.30        2974.00           1556          65.00       258.50
 1256.33        2974.25           1560          55.00       214.91
 1256.37        2974.50           1563          50.00       193.11
 1256.40        2974.75           1566          47.00       180.04
 1256.43        2975.00           1570          51.00       197.47
 1256.46        2975.25           1573          45.00       171.32
 1256.49        2975.50           1576          37.00       136.44
 1256.52        2975.75           1580          45.00       171.32
 1256.55        2976.00           1583          42.00       158.24
 1256.59        2976.25           1586          47.00       180.04
 1256.62        2976.50           1590          41.00       153.88
 1256.65        2976.75           1593          46.00       175.68
 1256.68        2977.00           1596          52.00       201.83
 1256.71        2977.25           1600          43.00       162.60
 1256.74        2977.50           1603          49.00       188.75
 1256.77        2977.75           1606          41.00       153.88
 1256.81        2978.00           1610          39.00       145.16
 1256.84        2978.25           1613          42.00       158.24
 1256.87        2978.50           1616          35.00       127.72
 1256.90        2978.75           1620          48.00       184.40
 1256.93        2979.00           1623          42.00       158.24
 1256.96        2979.25           1626          44.00       166.96
 1257.00        2979.50           1630          40.00       149.52
 1257.03        2979.75           1633          43.00       162.60
 1257.06        2980.00           1636          53.00       206.19
 1257.09        2980.25           1640          41.00       153.88
 1257.12        2980.50           1643          42.00       158.24
 1257.15        2980.75           1646          45.00       171.32
 1257.18        2981.00           1650          40.00       149.52
 1257.22        2981.25           1653          47.00       180.04
 1257.25        2981.50           1656          43.00       162.60
 1257.28        2981.75           1660          43.00       162.60
 1257.31        2982.00           1663          41.00       153.88
 1257.34        2982.25           1666          42.00       158.24
 1257.37        2982.50           1670          41.00       153.88
 1257.40        2982.75           1673          46.00       175.68
 1257.44        2983.00           1676          42.00       158.24
 1257.47        2983.25           1680          43.00       162.60
 1257.50        2983.50           1683          40.00       149.52
 1257.53        2983.75           1686          41.00       153.88
 1257.56        2984.00           1690          37.00       136.44
HS scan finished at 20:57:46
end
