************************************************************
  HL Scan of (1) Internal mercury lamp
************************************************************
Integration time is 0.2294 seconds per sample
dh050117El Arenosillo 37.1 6.73 2.43pr1000
************************************************************
Dead Time -------------------------  3.2E-08 
Number of Cycles Used -------------  4 
Starting Wavelength (Angstroms) ---  3331 
Final Wavelength (Angstoms) -------  3351 
Wavelength Increment (Angstroms) --  .25 
Filter Wheel #1 Position ---------- (1) Ground quartz diffuser (ND=2.32)
Filter Wheel #2 Position ---------- 



************************************************************
HL scan start time = 01:27:26
Dark Count =  .2 


Time (GMT)  Wavelength (Ang)  Step Number  Raw Counts  Counts/Second

   88.88        3331.00           6616         142.00       618.15
   89.92        3331.25           6620         131.00       570.19
   89.94        3331.50           6623         103.00       448.13
   89.98        3331.75           6627         146.00       635.58
   90.01        3332.00           6631         104.00       452.49
   90.03        3332.25           6635         142.00       618.15
   90.06        3332.50           6638         108.00       469.93
   90.10        3332.75           6642         125.00       544.04
   90.12        3333.00           6646         118.00       513.52
   90.15        3333.25           6649         115.00       500.44
   90.18        3333.50           6653         107.00       465.57
   90.21        3333.75           6657         116.00       504.80
   90.24        3334.00           6661         136.00       591.99
   90.27        3334.25           6664         126.00       548.40
   90.30        3334.50           6668         122.00       530.96
   90.33        3334.75           6672         143.00       622.51
   90.36        3335.00           6676         146.00       635.58
   90.39        3335.25           6679         164.00       714.05
   90.42        3335.50           6683         183.00       796.88
   90.45        3335.75           6687         355.00      1546.72
   90.48        3336.00           6691        1231.00      5366.22
   90.51        3336.25           6694        2837.00     12371.07
   90.54        3336.50           6698        6288.00     27433.84
   90.57        3336.75           6702       10141.00     44268.42
   90.60        3337.00           6706       14283.00     62385.97
   90.62        3337.25           6709       17487.00     76415.06
   90.65        3337.50           6713       21724.00     94986.64
   90.68        3337.75           6717       25539.00    111727.40
   90.71        3338.00           6721       29676.00    129901.60
   90.74        3338.25           6724       32660.00    143023.60
   90.77        3338.50           6728       36855.00    161489.80
   90.80        3338.75           6732       40769.00    178738.70
   90.83        3339.00           6736       44853.00    196757.20
   90.86        3339.25           6739       47995.00    210633.80
   90.89        3339.50           6743       52714.00    231498.50
   90.93        3339.75           6747       56472.00    248134.20
   90.95        3340.00           6751       60565.00    266273.20
   90.98        3340.25           6754       63992.00    281476.90
   91.01        3340.50           6758       67886.00    298770.50
   91.04        3340.75           6762       71148.00    313272.10
   91.07        3341.00           6766       73099.00    321952.00
   91.09        3341.25           6769       73901.00    325521.50
   91.13        3341.50           6773       73943.00    325708.40
   91.16        3341.75           6777       72621.00    319825.00
   91.18        3342.00           6781       69318.00    305135.00
   91.21        3342.25           6784       66502.00    292621.80
   91.24        3342.50           6788       62222.00    273622.50
   91.27        3342.75           6792       57623.00    253233.00
   91.30        3343.00           6795       54756.00    240535.70
   91.32        3343.25           6799       50554.00    221944.80
   91.36        3343.50           6803       46338.00    203314.10
   91.39        3343.75           6807       42290.00    185446.90
   91.42        3344.00           6811       38187.00    167357.70
   91.45        3344.25           6814       35460.00    155346.60
   91.48        3344.50           6818       31570.00    138229.10
   91.51        3344.75           6822       27119.00    118666.00
   91.54        3345.00           6826       22996.00    100566.40
   91.57        3345.25           6829       19656.00     85919.44
   91.60        3345.50           6833       15374.00     67161.63
   91.63        3345.75           6837       11189.00     48850.50
   91.66        3346.00           6841        7189.00     31368.88
   91.69        3346.25           6844        4680.00     20413.50
   91.72        3346.50           6848        1979.00      8628.36
   91.75        3346.75           6852         679.00      2959.30
   91.78        3347.00           6856         284.00      1237.19
   91.81        3347.25           6859         203.00       884.07
   91.84        3347.50           6863         176.00       766.37
   91.87        3347.75           6867         152.00       661.74
   91.90        3348.00           6871         129.00       561.47
   91.93        3348.25           6874         134.00       583.27
   91.95        3348.50           6878         150.00       653.02
   91.98        3348.75           6882         140.00       609.43
   92.01        3349.00           6886         157.00       683.54
   92.04        3349.25           6889         119.00       517.88
   92.07        3349.50           6893         113.00       491.73
   92.11        3349.75           6897         124.00       539.68
   92.13        3350.00           6901         134.00       583.27
   92.16        3350.25           6904         136.00       591.99
   92.19        3350.50           6908         127.00       552.76
   92.22        3350.75           6912         158.00       687.90
   92.25        3351.00           6916         127.00       552.76
HL scan finished at 01:34:11
end
