************************************************************
  HL Scan of (1) Internal mercury lamp
************************************************************
Integration time is 0.2294 seconds per sample
dh050118El Arenosillo 37.1 6.73 2.72pr1000
************************************************************
Dead Time -------------------------  3.2E-08 
Number of Cycles Used -------------  4 
Starting Wavelength (Angstroms) ---  3331 
Final Wavelength (Angstoms) -------  3351 
Wavelength Increment (Angstroms) --  .25 
Filter Wheel #1 Position ---------- (1) Ground quartz diffuser (ND=2.32)
Filter Wheel #2 Position ---------- 



************************************************************
HL scan start time = 01:28:05
Dark Count =  .3 


Time (GMT)  Wavelength (Ang)  Step Number  Raw Counts  Counts/Second

   89.52        3331.00           6616         177.00       770.29
   90.56        3331.25           6620         175.00       761.57
   90.59        3331.50           6623         167.00       726.70
   90.61        3331.75           6627         182.00       792.09
   90.65        3332.00           6631         177.00       770.29
   90.67        3332.25           6635         181.00       787.73
   90.70        3332.50           6638         180.00       783.37
   90.73        3332.75           6642         178.00       774.65
   90.76        3333.00           6646         177.00       770.29
   90.79        3333.25           6649         169.00       735.41
   90.82        3333.50           6653         163.00       709.26
   90.85        3333.75           6657         182.00       792.09
   90.88        3334.00           6661         173.00       752.85
   90.91        3334.25           6664         181.00       787.73
   90.94        3334.50           6668         195.00       848.76
   90.97        3334.75           6672         227.00       988.26
   91.00        3335.00           6676         253.00      1101.61
   91.02        3335.25           6679         288.00      1254.19
   91.06        3335.50           6683         356.00      1550.64
   91.08        3335.75           6687         564.00      2457.47
   91.11        3336.00           6691        1938.00      8449.10
   91.14        3336.25           6694        4774.00     20823.38
   91.17        3336.50           6698       12192.00     53236.65
   91.20        3336.75           6702       21575.00     94332.71
   91.23        3337.00           6706       31866.00    139530.50
   91.26        3337.25           6709       40045.00    175546.10
   91.29        3337.50           6713       49908.00    219088.20
   91.31        3337.75           6717       60314.00    265159.70
   91.35        3338.00           6721       71176.00    313396.20
   91.38        3338.25           6724       78879.00    347695.00
   91.41        3338.50           6728       89745.00    396206.60
   91.44        3338.75           6732      100128.00    442703.90
   91.47        3339.00           6736      110910.00    491135.90
   91.50        3339.25           6739      119062.00    527854.80
   91.52        3339.50           6743      130387.00    579010.80
   91.56        3339.75           6747      140473.00    624712.80
   91.59        3340.00           6751      151077.00    672908.10
   91.61        3340.25           6754      159251.00    710162.00
   91.65        3340.50           6758      169401.00    756546.90
   91.68        3340.75           6762      178019.00    796040.40
   91.70        3341.00           6766      185065.00    828405.30
   91.73        3341.25           6769      188870.00    845911.40
   91.76        3341.50           6773      190232.00    852182.60
   91.79        3341.75           6777      188795.00    845566.20
   91.82        3342.00           6781      183210.00    819878.10
   91.85        3342.25           6784      176384.00    788540.00
   91.87        3342.50           6788      127166.00    564444.10
   91.89        3342.75           6792      155412.00    692654.10
   91.92        3343.00           6795      146781.00    653364.70
   91.95        3343.25           6799      135759.00    603335.80
   91.98        3343.50           6803      125181.00    555473.90
   92.01        3343.75           6807      113918.00    504674.70
   92.05        3344.00           6811      103518.00    457915.20
   92.07        3344.25           6814       96134.00    424801.40
   92.10        3344.50           6818       85638.00    377853.00
   92.14        3344.75           6822       74816.00    329594.50
   92.16        3345.00           6826       64196.00    282382.00
   92.19        3345.25           6829       55896.00    245582.80
   92.22        3345.50           6833       45184.00    198218.00
   92.25        3345.75           6837       34248.00    150010.90
   92.28        3346.00           6841       22986.00    100522.00
   92.31        3346.25           6844       15891.00     69424.78
   92.34        3346.50           6848        7627.00     33281.72
   92.37        3346.75           6852        2638.00     11502.49
   92.40        3347.00           6856         921.00      4014.03
   92.43        3347.25           6859         473.00      2060.73
   92.46        3347.50           6863         358.00      1559.36
   92.48        3347.75           6867         286.00      1245.47
   92.51        3348.00           6871         253.00      1101.61
   92.55        3348.25           6874         239.00      1040.58
   92.57        3348.50           6878         225.00       979.54
   92.60        3348.75           6882         238.00      1036.22
   92.64        3349.00           6886         240.00      1044.93
   92.66        3349.25           6889         229.00       996.98
   92.69        3349.50           6893         194.00       844.40
   92.72        3349.75           6897         202.00       879.27
   92.75        3350.00           6901         202.00       879.27
   92.78        3350.25           6904         198.00       861.84
   92.80        3350.50           6908         202.00       879.27
   92.84        3350.75           6912         217.00       944.67
   92.87        3351.00           6916         203.00       883.63
HL scan finished at 01:34:48
end
