************************************************************
  HL Scan of (1) Internal mercury lamp
************************************************************
Integration time is 0.2294 seconds per sample
dh190117El Arenosillo 37.1 6.73 2.07pr1000
************************************************************
Dead Time -------------------------  3.2E-08 
Number of Cycles Used -------------  4 
Starting Wavelength (Angstroms) ---  3331 
Final Wavelength (Angstoms) -------  3351 
Wavelength Increment (Angstroms) --  .25 
Filter Wheel #1 Position ---------- (1) Ground quartz diffuser (ND=2.32)
Filter Wheel #2 Position ---------- 



************************************************************
HL scan start time = 01:34:07
Dark Count =  .2 


Time (GMT)  Wavelength (Ang)  Step Number  Raw Counts  Counts/Second

   95.58        3331.00           6616         115.00       500.44
   96.62        3331.25           6620         135.00       587.63
   96.64        3331.50           6623         137.00       596.35
   96.67        3331.75           6627         124.00       539.68
   96.70        3332.00           6631         137.00       596.35
   96.73        3332.25           6635         113.00       491.73
   96.76        3332.50           6638         142.00       618.15
   96.78        3332.75           6642         182.00       792.52
   96.82        3333.00           6646         130.00       565.83
   96.84        3333.25           6649         114.00       496.08
   96.87        3333.50           6653         117.00       509.16
   96.90        3333.75           6657         127.00       552.76
   96.93        3334.00           6661         121.00       526.60
   96.96        3334.25           6664         136.00       591.99
   96.99        3334.50           6668         125.00       544.04
   97.02        3334.75           6672         155.00       674.82
   97.05        3335.00           6676         154.00       670.46
   97.08        3335.25           6679         166.00       722.77
   97.10        3335.50           6683         183.00       796.88
   97.13        3335.75           6687         370.00      1612.11
   97.17        3336.00           6691        1271.00      5540.65
   97.19        3336.25           6694        2852.00     12436.51
   97.22        3336.50           6698        6256.00     27294.10
   97.25        3336.75           6702        9835.00     42930.78
   97.28        3337.00           6706       13841.00     60451.62
   97.31        3337.25           6709       16513.00     72148.96
   97.34        3337.50           6713       20704.00     90513.75
   97.37        3337.75           6717       24418.00    106806.50
   97.40        3338.00           6721       28294.00    123828.00
   97.43        3338.25           6724       31087.00    136105.00
   97.46        3338.50           6728       35059.00    153581.20
   97.49        3338.75           6732       38704.00    169635.90
   97.52        3339.00           6736       42465.00    186218.90
   97.55        3339.25           6739       45538.00    199781.40
   97.58        3339.50           6743       49419.00    216927.00
   97.61        3339.75           6747       53335.00    234246.30
   97.64        3340.00           6751       57318.00    251881.70
   97.67        3340.25           6754       60574.00    266313.10
   97.69        3340.50           6758       64574.00    284060.40
   97.72        3340.75           6762       68105.00    299743.60
   97.75        3341.00           6766       70181.00    308971.80
   97.78        3341.25           6769       71079.00    312965.20
   97.81        3341.50           6773       71434.00    314544.20
   97.84        3341.75           6777       69994.00    308140.30
   97.87        3342.00           6781       67229.00    295851.30
   97.90        3342.25           6784       64841.00    285245.70
   97.92        3342.50           6788       60909.00    267798.70
   97.95        3342.75           6792       57026.00    250588.20
   97.99        3343.00           6795       53934.00    236897.20
   98.01        3343.25           6799       49998.00    219486.50
   98.04        3343.50           6803       46134.00    202413.20
   98.07        3343.75           6807       42122.00    184705.80
   98.10        3344.00           6811       38287.00    167798.30
   98.13        3344.25           6814       35903.00    157297.20
   98.16        3344.50           6818       32010.00    140164.30
   98.19        3344.75           6822       27929.00    122224.30
   98.22        3345.00           6826       24178.00    105753.10
   98.25        3345.25           6829       20711.00     90544.46
   98.28        3345.50           6833       16556.00     72337.27
   98.31        3345.75           6837       12477.00     54483.75
   98.34        3346.00           6841        8208.00     35820.46
   98.37        3346.25           6844        5483.00     23918.91
   98.39        3346.50           6848        2505.00     10922.74
   98.42        3346.75           6852         910.00      3966.50
   98.45        3347.00           6856         356.00      1551.08
   98.48        3347.25           6859         221.00       962.54
   98.51        3347.50           6863         179.00       779.44
   98.54        3347.75           6867         159.00       692.26
   98.57        3348.00           6871         148.00       644.30
   98.60        3348.25           6874         133.00       578.91
   98.63        3348.50           6878         123.00       535.32
   98.66        3348.75           6882         135.00       587.63
   98.69        3349.00           6886         126.00       548.40
   98.72        3349.25           6889         156.00       679.18
   98.74        3349.50           6893         132.00       574.55
   98.78        3349.75           6897         143.00       622.51
   98.81        3350.00           6901         128.00       557.12
   98.83        3350.25           6904         140.00       609.43
   98.86        3350.50           6908         151.00       657.38
   98.89        3350.75           6912         176.00       766.37
   98.92        3351.00           6916         153.00       666.10
HL scan finished at 01:40:51
end
