************************************************************
  HL Scan of (1) Internal mercury lamp
************************************************************
Integration time is 0.2294 seconds per sample
dh120117El Arenosillo 37.1 6.73 2.45pr1000
************************************************************
Dead Time -------------------------  3.2E-08 
Number of Cycles Used -------------  4 
Starting Wavelength (Angstroms) ---  3331 
Final Wavelength (Angstoms) -------  3351 
Wavelength Increment (Angstroms) --  .25 
Filter Wheel #1 Position ---------- (1) Ground quartz diffuser (ND=2.32)
Filter Wheel #2 Position ---------- 



************************************************************
HL scan start time = 01:30:27
Dark Count =  .2 


Time (GMT)  Wavelength (Ang)  Step Number  Raw Counts  Counts/Second

   91.91        3331.00           6616         161.00       700.97
   92.94        3331.25           6620         112.00       487.37
   92.96        3331.50           6623         120.00       522.24
   93.00        3331.75           6627         145.00       631.22
   93.03        3332.00           6631         131.00       570.19
   93.05        3332.25           6635         129.00       561.47
   93.08        3332.50           6638         116.00       504.80
   93.11        3332.75           6642         124.00       539.68
   93.14        3333.00           6646         124.00       539.68
   93.17        3333.25           6649         117.00       509.16
   93.20        3333.50           6653         125.00       544.04
   93.23        3333.75           6657         151.00       657.38
   93.25        3334.00           6661         112.00       487.37
   93.28        3334.25           6664         136.00       591.99
   93.32        3334.50           6668         129.00       561.47
   93.34        3334.75           6672         141.00       613.79
   93.37        3335.00           6676         160.00       696.62
   93.40        3335.25           6679         156.00       679.18
   93.43        3335.50           6683         182.00       792.52
   93.46        3335.75           6687         208.00       905.87
   93.49        3336.00           6691         346.00      1507.48
   93.52        3336.25           6694         879.00      3831.33
   93.55        3336.50           6698        2813.00     12266.37
   93.58        3336.75           6702        6198.00     27040.83
   93.61        3337.00           6706       10449.00     45614.92
   93.64        3337.25           6709       13480.00     58871.92
   93.67        3337.50           6713       17621.00     77002.07
   93.70        3337.75           6717       21522.00     94100.72
   93.73        3338.00           6721       25820.00    112961.20
   93.76        3338.25           6724       28863.00    126328.30
   93.79        3338.50           6728       32921.00    144171.90
   93.82        3338.75           6732       36698.00    160798.30
   93.85        3339.00           6736       41113.00    180255.60
   93.88        3339.25           6739       43899.00    192546.30
   93.90        3339.50           6743       48374.00    212308.50
   93.94        3339.75           6747       52268.00    229525.40
   93.97        3340.00           6751       56506.00    248284.80
   94.00        3340.25           6754       59744.00    262633.00
   94.02        3340.50           6758       63869.00    280931.00
   94.06        3340.75           6762       67651.00    297726.30
   94.09        3341.00           6766       70446.00    310150.20
   94.11        3341.25           6769       72379.00    318748.20
   94.14        3341.50           6773       73432.00    323434.00
   94.17        3341.75           6777       73400.00    323291.60
   94.20        3342.00           6781       71918.00    316697.20
   94.23        3342.25           6784       69181.00    304525.90
   94.26        3342.50           6788       65746.00    289264.10
   94.29        3342.75           6792       61330.00    269665.80
   94.31        3343.00           6795       58437.00    256839.90
   94.34        3343.25           6799       54320.00    238605.70
   94.37        3343.50           6803       49873.00    218933.90
   94.40        3343.75           6807       45709.00    200536.50
   94.43        3344.00           6811       41522.00    182059.30
   94.47        3344.25           6814       38752.00    169847.40
   94.49        3344.50           6818       34705.00    152022.90
   94.52        3344.75           6822       30837.00    135005.70
   94.55        3345.00           6826       26752.00    117054.00
   94.59        3345.25           6829       23757.00    103905.50
   94.61        3345.50           6833       19556.00     85481.12
   94.64        3345.75           6837       15312.00     66890.19
   94.67        3346.00           6841       11120.00     48548.78
   94.70        3346.25           6844        7889.00     34426.74
   94.73        3346.50           6848        4264.00     18597.81
   94.76        3346.75           6852        1828.00      7969.78
   94.79        3347.00           6856         597.00      2601.79
   94.82        3347.25           6859         320.00      1394.13
   94.85        3347.50           6863         187.00       814.32
   94.88        3347.75           6867         162.00       705.33
   94.91        3348.00           6871         164.00       714.05
   94.93        3348.25           6874         174.00       757.65
   94.96        3348.50           6878         148.00       644.30
   95.00        3348.75           6882         120.00       522.24
   95.02        3349.00           6886         137.00       596.35
   95.05        3349.25           6889         122.00       530.96
   95.08        3349.50           6893         118.00       513.52
   95.11        3349.75           6897         128.00       557.12
   95.14        3350.00           6901         103.00       448.13
   95.17        3350.25           6904         116.00       504.80
   95.20        3350.50           6908         134.00       583.27
   95.23        3350.75           6912         141.00       613.79
   95.26        3351.00           6916         141.00       613.79
HL scan finished at 01:37:12
end
