************************************************************
  HL Scan of (1) Internal mercury lamp
************************************************************
Integration time is 0.2294 seconds per sample
dh120118El Arenosillo 37.1 6.73 2.33pr1000
************************************************************
Dead Time -------------------------  3.2E-08 
Number of Cycles Used -------------  4 
Starting Wavelength (Angstroms) ---  3331 
Final Wavelength (Angstoms) -------  3351 
Wavelength Increment (Angstroms) --  .25 
Filter Wheel #1 Position ---------- (1) Ground quartz diffuser (ND=2.32)
Filter Wheel #2 Position ---------- 



************************************************************
HL scan start time = 01:32:49
Dark Count =  .2 


Time (GMT)  Wavelength (Ang)  Step Number  Raw Counts  Counts/Second

   94.26        3331.00           6616         167.00       727.13
   95.30        3331.25           6620         155.00       674.82
   95.33        3331.50           6623         168.00       731.49
   95.35        3331.75           6627         170.00       740.21
   95.39        3332.00           6631         162.00       705.33
   95.42        3332.25           6635         165.00       718.41
   95.44        3332.50           6638         167.00       727.13
   95.47        3332.75           6642         172.00       748.93
   95.50        3333.00           6646         165.00       718.41
   95.53        3333.25           6649         166.00       722.77
   95.55        3333.50           6653         112.00       487.37
   95.58        3333.75           6657         164.00       714.05
   95.61        3334.00           6661         166.00       722.77
   95.63        3334.25           6664         176.00       766.37
   95.66        3334.50           6668         188.00       818.68
   95.69        3334.75           6672         199.00       866.63
   95.72        3335.00           6676         229.00       997.42
   95.75        3335.25           6679         264.00      1150.00
   95.78        3335.50           6683         291.00      1267.71
   95.81        3335.75           6687         636.00      2771.82
   95.84        3336.00           6691        2333.00     10172.45
   95.87        3336.25           6694        5571.00     24303.11
   95.90        3336.50           6698       12820.00     55984.26
   95.93        3336.75           6702       20564.00     89899.93
   95.95        3337.00           6706       27984.00    122465.90
   95.99        3337.25           6709       33905.00    148501.80
   96.01        3337.50           6713       29348.00    128459.90
   96.03        3337.75           6717       48419.00    212507.40
   96.07        3338.00           6721       55981.00    245959.70
   96.09        3338.25           6724       61481.00    270335.50
   96.12        3338.50           6728       68789.00    302783.50
   96.15        3338.75           6732       76599.00    337535.50
   96.19        3339.00           6736       84352.00    372110.90
   96.21        3339.25           6739       89983.00    397271.30
   96.24        3339.50           6743       97657.00    431626.00
   96.28        3339.75           6747      105054.00    464812.80
   96.30        3340.00           6751      112105.00    496513.50
   96.33        3340.25           6754      117152.00    519244.30
   96.36        3340.50           6758      124148.00    550808.20
   96.39        3340.75           6762      130651.00    580205.80
   96.42        3341.00           6766      135288.00    601202.00
   96.45        3341.25           6769      137381.00    610688.40
   96.48        3341.50           6773      137538.00    611400.10
   96.51        3341.75           6777      135003.00    599910.70
   96.53        3342.00           6781      129438.00    574718.00
   96.57        3342.25           6784      124306.00    551521.80
   96.59        3342.50           6788      116851.00    517887.70
   96.62        3342.75           6792      109244.00    483642.90
   96.65        3343.00           6795      103709.00    458773.10
   96.68        3343.25           6799       95896.00    423735.70
   96.71        3343.50           6803       87951.00    388187.20
   96.74        3343.75           6807       80624.00    355475.80
   96.78        3344.00           6811       73259.00    322664.00
   96.80        3344.25           6814       67828.00    298512.80
   96.83        3344.50           6818       60183.00    264579.40
   96.87        3344.75           6822       52941.00    232502.90
   96.90        3345.00           6826       45512.00    199666.60
   96.92        3345.25           6829       39667.00    173880.30
   96.95        3345.50           6833       31835.00    139394.60
   96.99        3345.75           6837       24049.00    105186.90
   97.01        3346.00           6841       16405.00     71675.98
   97.04        3346.25           6844       11051.00     48247.06
   97.07        3346.50           6848        5025.00     21919.47
   97.10        3346.75           6852        1543.00      6726.82
   97.13        3347.00           6856         516.00      2248.64
   97.16        3347.25           6859         329.00      1433.37
   97.19        3347.50           6863         267.00      1163.08
   97.22        3347.75           6867         217.00       945.10
   97.25        3348.00           6871         210.00       914.59
   97.28        3348.25           6874         220.00       958.18
   97.31        3348.50           6878         205.00       892.79
   97.34        3348.75           6882         184.00       801.24
   97.37        3349.00           6886         191.00       831.76
   97.40        3349.25           6889         186.00       809.96
   97.42        3349.50           6893         178.00       775.08
   97.46        3349.75           6897         176.00       766.37
   97.49        3350.00           6901         190.00       827.40
   97.51        3350.25           6904         185.00       805.60
   97.54        3350.50           6908         189.00       823.04
   97.58        3350.75           6912         187.00       814.32
   97.60        3351.00           6916         181.00       788.16
HL scan finished at 01:39:32
end
