************************************************************
  HL Scan of (1) Internal mercury lamp
************************************************************
Integration time is 0.2294 seconds per sample
dh190118El Arenosillo 37.1 6.73 2.49pr1000
************************************************************
Dead Time -------------------------  3.2E-08 
Number of Cycles Used -------------  4 
Starting Wavelength (Angstroms) ---  3331 
Final Wavelength (Angstoms) -------  3351 
Wavelength Increment (Angstroms) --  .25 
Filter Wheel #1 Position ---------- (1) Ground quartz diffuser (ND=2.32)
Filter Wheel #2 Position ---------- 



************************************************************
HL scan start time = 01:35:19
Dark Count =  .2 


Time (GMT)  Wavelength (Ang)  Step Number  Raw Counts  Counts/Second

   96.76        3331.00           6616         165.00       718.41
   97.80        3331.25           6620         169.00       735.85
   97.83        3331.50           6623         154.00       670.46
   97.86        3331.75           6627         165.00       718.41
   97.89        3332.00           6631         152.00       661.74
   97.92        3332.25           6635         153.00       666.10
   97.95        3332.50           6638         151.00       657.38
   97.98        3332.75           6642         156.00       679.18
   98.01        3333.00           6646         161.00       700.97
   98.04        3333.25           6649         164.00       714.05
   98.06        3333.50           6653         158.00       687.90
   98.10        3333.75           6657         162.00       705.33
   98.13        3334.00           6661         163.00       709.69
   98.16        3334.25           6664         173.00       753.29
   98.19        3334.50           6668         195.00       849.19
   98.22        3334.75           6672         206.00       897.15
   98.25        3335.00           6676         246.00      1071.53
   98.27        3335.25           6679         292.00      1272.07
   98.31        3335.50           6683         326.00      1420.29
   98.33        3335.75           6687         751.00      3273.23
   98.36        3336.00           6691        2905.00     12667.73
   98.39        3336.25           6694        6400.00     27922.93
   98.42        3336.50           6698       13518.00     59038.20
   98.45        3336.75           6702       21976.00     96091.89
   98.48        3337.00           6706       30579.00    133871.30
   98.51        3337.25           6709       37016.00    162198.90
   98.54        3337.50           6713       45174.00    198174.30
   98.56        3337.75           6717       53540.00    235153.50
   98.60        3338.00           6721       61656.00    271111.70
   98.63        3338.25           6724       68058.00    299534.80
   98.65        3338.50           6728       76244.00    335954.10
   98.69        3338.75           6732       84099.00    370981.40
   98.72        3339.00           6736       93353.00    412348.60
   98.74        3339.25           6739       73071.00    321827.40
   98.76        3339.50           6743      108553.00    480535.90
   98.79        3339.75           6747      116841.00    517842.60
   98.82        3340.00           6751      125485.00    556847.70
   98.85        3340.25           6754      131298.00    583133.60
   98.88        3340.50           6758      139663.00    621038.00
   98.91        3340.75           6762      146464.00    651924.00
   98.94        3341.00           6766      151612.00    675344.10
   98.97        3341.25           6769      153193.00    682543.80
   99.00        3341.50           6773      153504.00    683960.50
   99.03        3341.75           6777      150537.00    670450.60
   99.05        3342.00           6781      144777.00    644256.90
   99.09        3342.25           6784      138912.00    617631.10
   99.12        3342.50           6788      130559.00    579789.50
   99.14        3342.75           6792      122105.00    541584.10
   99.17        3343.00           6795      115904.00    513620.40
   99.20        3343.25           6799      107980.00    477960.00
   99.23        3343.50           6803       99009.00    437686.40
   99.26        3343.75           6807       91158.00    402526.50
   99.29        3344.00           6811       82496.00    363826.80
   99.32        3344.25           6814       76698.00    337976.50
   99.35        3344.50           6818       67738.00    298112.80
   99.38        3344.75           6822       58261.00    256060.00
   99.41        3345.00           6826       49635.00    217881.80
   99.44        3345.25           6829       42577.00    186712.90
   99.47        3345.50           6833       33963.00    148757.00
   99.50        3345.75           6837       24939.00    109093.40
   99.53        3346.00           6841       16713.00     73024.85
   99.56        3346.25           6844       11025.00     48133.37
   99.59        3346.50           6848        4524.00     19732.60
   99.62        3346.75           6852        1358.00      5920.04
   99.65        3347.00           6856         486.00      2117.84
   99.68        3347.25           6859         342.00      1490.04
   99.71        3347.50           6863         276.00      1202.31
   99.74        3347.75           6867         244.00      1062.81
   99.76        3348.00           6871         237.00      1032.29
   99.80        3348.25           6874         193.00       840.48
   99.83        3348.50           6878         208.00       905.87
   99.86        3348.75           6882         183.00       796.88
   99.89        3349.00           6886         185.00       805.60
   99.92        3349.25           6889         175.00       762.01
   99.95        3349.50           6893         185.00       805.60
   99.97        3349.75           6897         185.00       805.60
  100.00        3350.00           6901         174.00       757.65
  100.03        3350.25           6904         189.00       823.04
  100.06        3350.50           6908         166.00       722.77
  100.09        3350.75           6912         183.00       796.88
  100.12        3351.00           6916         186.00       809.96
HL scan finished at 01:42:03
end
