************************************************************
  HL Scan of (1) Internal mercury lamp
************************************************************
Integration time is 0.2294 seconds per sample
dh260118El Arenosillo 37.1 6.73 2.29pr1000
************************************************************
Dead Time -------------------------  3.2E-08 
Number of Cycles Used -------------  4 
Starting Wavelength (Angstroms) ---  3331 
Final Wavelength (Angstoms) -------  3351 
Wavelength Increment (Angstroms) --  .25 
Filter Wheel #1 Position ---------- (1) Ground quartz diffuser (ND=2.32)
Filter Wheel #2 Position ---------- 



************************************************************
HL scan start time = 01:37:27
Dark Count =  0 


Time (GMT)  Wavelength (Ang)  Step Number  Raw Counts  Counts/Second

   98.89        3331.00           6616         170.00       741.08
   99.93        3331.25           6620         158.00       688.77
   99.96        3331.50           6623         165.00       719.28
   99.98        3331.75           6627         170.00       741.08
  100.02        3332.00           6631         161.00       701.85
  100.05        3332.25           6635         162.00       706.21
  100.07        3332.50           6638         159.00       693.13
  100.10        3332.75           6642         163.00       710.57
  100.13        3333.00           6646         155.00       675.69
  100.15        3333.25           6649         166.00       723.64
  100.18        3333.50           6653         154.00       671.33
  100.22        3333.75           6657         164.00       714.92
  100.25        3334.00           6661         164.00       714.92
  100.27        3334.25           6664         175.00       762.88
  100.31        3334.50           6668         177.00       771.60
  100.34        3334.75           6672         198.00       863.15
  100.36        3335.00           6676         226.00       985.21
  100.39        3335.25           6679         239.00      1041.88
  100.43        3335.50           6683         288.00      1255.50
  100.45        3335.75           6687         541.00      2358.50
  100.48        3336.00           6691        1970.00      8589.98
  100.52        3336.25           6694        4956.00     21619.14
  100.54        3336.50           6698       11435.00     49927.14
  100.57        3336.75           6702       19115.00     83549.15
  100.60        3337.00           6706       26988.00    118091.50
  100.63        3337.25           6709       33195.00    145378.30
  100.66        3337.50           6713       40742.00    178620.50
  100.69        3337.75           6717       48269.00    211845.40
  100.72        3338.00           6721       55598.00    244264.50
  100.75        3338.25           6724       61332.00    269675.50
  100.78        3338.50           6728       68989.00    303673.40
  100.82        3338.75           6732       76464.00    336935.00
  100.84        3339.00           6736       84515.00    372839.50
  100.87        3339.25           6739       90534.00    399736.30
  100.90        3339.50           6743       98406.00    434984.10
  100.94        3339.75           6747      105716.00    467787.20
  100.96        3340.00           6751      113529.00    502924.50
  100.99        3340.25           6754      118497.00    525308.50
  101.03        3340.50           6758      125980.00    559085.30
  101.05        3340.75           6762      132902.00    590395.60
  101.08        3341.00           6766      138262.00    614684.00
  101.11        3341.25           6769      141261.00    628290.50
  101.14        3341.50           6773      141975.00    631531.60
  101.17        3341.75           6777      139679.00    621111.50
  101.20        3342.00           6781      134854.00    599236.50
  101.23        3342.25           6784      129608.00    575488.00
  101.26        3342.50           6788      121933.00    540808.80
  101.29        3342.75           6792      114188.00    505891.80
  101.32        3343.00           6795      108256.00    479201.60
  101.35        3343.25           6799      100067.00    442431.60
  101.38        3343.50           6803       92129.00    406871.70
  101.41        3343.75           6807       84477.00    372669.90
  101.44        3344.00           6811       77215.00    340280.70
  101.47        3344.25           6814       71924.00    316724.80
  101.50        3344.50           6818       63689.00    280133.00
  101.53        3344.75           6822       56257.00    247182.90
  101.56        3345.00           6826       48393.00    212393.30
  101.59        3345.25           6829       42221.00    185143.40
  101.62        3345.50           6833       34279.00    150148.60
  101.65        3345.75           6837       26318.00    115148.90
  101.68        3346.00           6841       17989.00     78615.13
  101.71        3346.25           6844       12086.00     52774.32
  101.74        3346.50           6848        5760.00     25129.18
  101.77        3346.75           6852        1909.00      8323.93
  101.79        3347.00           6856         583.00      2541.62
  101.83        3347.25           6859         349.00      1521.43
  101.86        3347.50           6863         269.00      1172.67
  101.89        3347.75           6867         264.00      1150.87
  101.92        3348.00           6871         208.00       906.74
  101.95        3348.25           6874         197.00       858.79
  101.98        3348.50           6878         195.00       850.07
  102.00        3348.75           6882         185.00       806.47
  102.04        3349.00           6886         190.00       828.27
  102.06        3349.25           6889         177.00       771.60
  102.09        3349.50           6893         187.00       815.19
  102.13        3349.75           6897         176.00       767.24
  102.15        3350.00           6901         187.00       815.19
  102.18        3350.25           6904         172.00       749.80
  102.21        3350.50           6908         175.00       762.88
  102.24        3350.75           6912         176.00       767.24
  102.27        3351.00           6916         176.00       767.24
HL scan finished at 01:44:12
end
