************************************************************
  HL Scan of (1) Internal mercury lamp
************************************************************
Integration time is 0.2294 seconds per sample
dh260117El Arenosillo 37.1 6.73 2.5pr1000
************************************************************
Dead Time -------------------------  3.2E-08 
Number of Cycles Used -------------  4 
Starting Wavelength (Angstroms) ---  3331 
Final Wavelength (Angstoms) -------  3351 
Wavelength Increment (Angstroms) --  .25 
Filter Wheel #1 Position ---------- (1) Ground quartz diffuser (ND=2.32)
Filter Wheel #2 Position ---------- 



************************************************************
HL scan start time = 01:34:46
Dark Count =  .2 


Time (GMT)  Wavelength (Ang)  Step Number  Raw Counts  Counts/Second

   96.23        3331.00           6616         126.00       548.40
   97.26        3331.25           6620         127.00       552.76
   97.29        3331.50           6623         129.00       561.47
   97.32        3331.75           6627         118.00       513.52
   97.35        3332.00           6631         136.00       591.99
   97.38        3332.25           6635         137.00       596.35
   97.41        3332.50           6638         106.00       461.21
   97.44        3332.75           6642         106.00       461.21
   97.47        3333.00           6646         125.00       544.04
   97.49        3333.25           6649         115.00       500.44
   97.53        3333.50           6653         160.00       696.62
   97.56        3333.75           6657         134.00       583.27
   97.58        3334.00           6661         120.00       522.24
   97.61        3334.25           6664         130.00       565.83
   97.65        3334.50           6668         147.00       639.94
   97.67        3334.75           6672         144.00       626.87
   97.70        3335.00           6676         155.00       674.82
   97.74        3335.25           6679         167.00       727.13
   97.76        3335.50           6683         185.00       805.60
   97.79        3335.75           6687         262.00      1141.28
   97.82        3336.00           6691         891.00      3883.66
   97.85        3336.25           6694        2142.00      9339.32
   97.88        3336.50           6698        5026.00     21923.83
   97.91        3336.75           6702        8704.00     37987.74
   97.95        3337.00           6706       12513.00     54641.23
   97.97        3337.25           6709       15409.00     67314.85
   98.00        3337.50           6713       19560.00     85498.64
   98.03        3337.75           6717       23769.00    103958.20
   98.06        3338.00           6721       27686.00    121156.70
   98.09        3338.25           6724       30760.00    134667.10
   98.12        3338.50           6728       35170.00    154069.90
   98.15        3338.75           6732       39071.00    171253.30
   98.18        3339.00           6736       43589.00    191178.20
   98.20        3339.25           6739       47057.00    206489.80
   98.23        3339.50           6743       50997.00    223903.70
   98.27        3339.75           6747       54881.00    241089.10
   98.30        3340.00           6751       59047.00    259543.40
   98.32        3340.25           6754       62034.00    272788.50
   98.36        3340.50           6758       66556.00    292861.70
   98.38        3340.75           6762       70288.00    309447.60
   98.41        3341.00           6766       72565.00    319575.80
   98.44        3341.25           6769       74027.00    326082.30
   98.47        3341.50           6773       74736.00    329238.70
   98.50        3341.75           6777       73592.00    324146.10
   98.53        3342.00           6781       71427.00    314513.10
   98.56        3342.25           6784       69256.00    304859.30
   98.59        3342.50           6788       65318.00    287363.60
   98.62        3342.75           6792       61154.00    268885.20
   98.64        3343.00           6795       57839.00    254190.00
   98.68        3343.25           6799       53857.00    236556.40
   98.71        3343.50           6803       48909.00    214672.80
   98.73        3343.75           6807       44795.00    196501.10
   98.76        3344.00           6811       40473.00    177433.60
   98.79        3344.25           6814       37475.00    164220.80
   98.82        3344.50           6818       33336.00    145997.90
   98.85        3344.75           6822       29071.00    127242.40
   98.88        3345.00           6826       24998.00    109352.40
   98.91        3345.25           6829       21961.00     96026.09
   98.94        3345.50           6833       17856.00     78031.58
   98.96        3345.75           6837       13451.00     58745.03
   99.00        3346.00           6841        9172.00     40032.94
   99.03        3346.25           6844        6209.00     27088.86
   99.05        3346.50           6848        2989.00     13034.21
   99.09        3346.75           6852         991.00      4319.69
   99.12        3347.00           6856         355.00      1546.72
   99.14        3347.25           6859         222.00       966.90
   99.17        3347.50           6863         171.00       744.57
   99.20        3347.75           6867         148.00       644.30
   99.23        3348.00           6871         144.00       626.87
   99.26        3348.25           6874         142.00       618.15
   99.29        3348.50           6878         138.00       600.71
   99.32        3348.75           6882         170.00       740.21
   99.35        3349.00           6886         139.00       605.07
   99.38        3349.25           6889         127.00       552.76
   99.41        3349.50           6893         160.00       696.62
   99.44        3349.75           6897         133.00       578.91
   99.47        3350.00           6901         152.00       661.74
   99.50        3350.25           6904         149.00       648.66
   99.53        3350.50           6908         149.00       648.66
   99.55        3350.75           6912         126.00       548.40
   99.58        3351.00           6916         118.00       513.52
HL scan finished at 01:41:32
end
