************************************************************
  HL Scan of (1) Internal mercury lamp
************************************************************
Integration time is 0.2294 seconds per sample
dh020217El Arenosillo 37.1 6.73 2.68pr1000
************************************************************
Dead Time -------------------------  3.2E-08 
Number of Cycles Used -------------  4 
Starting Wavelength (Angstroms) ---  3331 
Final Wavelength (Angstoms) -------  3351 
Wavelength Increment (Angstroms) --  .25 
Filter Wheel #1 Position ---------- (1) Ground quartz diffuser (ND=2.32)
Filter Wheel #2 Position ---------- 



************************************************************
HL scan start time = 01:36:12
Dark Count =  .3 


Time (GMT)  Wavelength (Ang)  Step Number  Raw Counts  Counts/Second

   97.65        3331.00           6616         111.00       482.57
   98.68        3331.25           6620         135.00       587.20
   98.71        3331.50           6623         120.00       521.80
   98.74        3331.75           6627         111.00       482.57
   98.77        3332.00           6631         107.00       465.13
   98.80        3332.25           6635         117.00       508.73
   98.83        3332.50           6638         124.00       539.24
   98.86        3332.75           6642         105.00       456.41
   98.89        3333.00           6646         109.00       473.85
   98.91        3333.25           6649         106.00       460.77
   98.95        3333.50           6653         113.00       491.29
   98.98        3333.75           6657         122.00       530.52
   99.00        3334.00           6661         100.00       434.62
   99.03        3334.25           6664         132.00       574.12
   99.06        3334.50           6668         139.00       604.63
   99.09        3334.75           6672         144.00       626.43
   99.11        3335.00           6676         151.00       656.94
   99.15        3335.25           6679         156.00       678.74
   99.18        3335.50           6683         189.00       822.60
   99.21        3335.75           6687         374.00      1629.12
   99.23        3336.00           6691        1467.00      6394.94
   99.27        3336.25           6694        3313.00     14447.39
   99.29        3336.50           6698        7046.00     30743.84
   99.32        3336.75           6702       10926.00     47700.05
   99.36        3337.00           6706       14873.00     64967.98
   99.38        3337.25           6709       17622.00     77006.00
   99.41        3337.50           6713       21504.00     94021.34
   99.44        3337.75           6717       25666.00    112284.60
   99.48        3338.00           6721       29789.00    130397.80
   99.50        3338.25           6724       32673.00    143080.40
   99.53        3338.50           6728       36623.00    160467.50
   99.56        3338.75           6732       40943.00    179505.50
   99.60        3339.00           6736       45123.00    197948.70
   99.62        3339.25           6739       47702.00    209338.80
   99.65        3339.50           6743       52229.00    229352.40
   99.69        3339.75           6747       56191.00    246889.20
   99.71        3340.00           6751       60409.00    265581.00
   99.74        3340.25           6754       63252.00    278192.20
   99.77        3340.50           6758       67324.00    296273.00
   99.80        3340.75           6762       70749.00    311497.20
   99.83        3341.00           6766       73047.00    321720.20
   99.85        3341.25           6769       73938.00    325685.80
   99.89        3341.50           6773       74102.00    326415.80
   99.92        3341.75           6777       72651.00    319958.00
   99.94        3342.00           6781       69303.00    305067.90
   99.97        3342.25           6784       66682.00    293421.00
  100.00        3342.50           6788       62860.00    276452.70
  100.03        3342.75           6792       58590.00    257517.50
  100.06        3343.00           6795       55814.00    245219.70
  100.09        3343.25           6799       51899.00    227892.60
  100.12        3343.50           6803       47792.00    209736.50
  100.14        3343.75           6807       43685.00    191601.40
  100.17        3344.00           6811       39786.00    174404.40
  100.21        3344.25           6814       37003.00    162141.20
  100.24        3344.50           6818       32603.00    142772.40
  100.26        3344.75           6822       28372.00    124170.30
  100.30        3345.00           6826       24121.00    105502.50
  100.33        3345.25           6829       20724.00     90601.01
  100.35        3345.50           6833       16391.00     71614.24
  100.38        3345.75           6837       12169.00     53136.05
  100.42        3346.00           6841        7958.00     34727.76
  100.44        3346.25           6844        5020.00     21897.21
  100.47        3346.50           6848        2216.00      9661.66
  100.50        3346.75           6852         777.00      3386.16
  100.53        3347.00           6856         300.00      1306.51
  100.56        3347.25           6859         227.00       988.26
  100.59        3347.50           6863         170.00       739.77
  100.62        3347.75           6867         142.00       617.71
  100.65        3348.00           6871         150.00       652.59
  100.68        3348.25           6874         153.00       665.66
  100.70        3348.50           6878         146.00       635.15
  100.73        3348.75           6882         126.00       547.96
  100.76        3349.00           6886         151.00       656.94
  100.78        3349.25           6889         113.00       491.29
  100.82        3349.50           6893         132.00       574.12
  100.85        3349.75           6897         118.00       513.09
  100.87        3350.00           6901         141.00       613.35
  100.90        3350.25           6904         138.00       600.27
  100.93        3350.50           6908         117.00       508.73
  100.96        3350.75           6912         123.00       534.88
  100.99        3351.00           6916         139.00       604.63
HL scan finished at 01:42:56
end
