************************************************************
  HL Scan of (1) Internal mercury lamp
************************************************************
Integration time is 0.2294 seconds per sample
dh020218El Arenosillo 37.1 6.73 2.35pr1000
************************************************************
Dead Time -------------------------  3.2E-08 
Number of Cycles Used -------------  4 
Starting Wavelength (Angstroms) ---  3331 
Final Wavelength (Angstoms) -------  3351 
Wavelength Increment (Angstroms) --  .25 
Filter Wheel #1 Position ---------- (1) Ground quartz diffuser (ND=2.32)
Filter Wheel #2 Position ---------- 



************************************************************
HL scan start time = 01:38:45
Dark Count =  .3 


Time (GMT)  Wavelength (Ang)  Step Number  Raw Counts  Counts/Second

  100.19        3331.00           6616         162.00       704.90
  101.23        3331.25           6620         157.00       683.10
  101.25        3331.50           6623         169.00       735.41
  101.28        3331.75           6627         163.00       709.26
  101.32        3332.00           6631         161.00       700.54
  101.34        3332.25           6635         155.00       674.38
  101.37        3332.50           6638         159.00       691.82
  101.40        3332.75           6642         158.00       687.46
  101.43        3333.00           6646         166.00       722.34
  101.46        3333.25           6649         164.00       713.62
  101.48        3333.50           6653         175.00       761.57
  101.52        3333.75           6657         161.00       700.54
  101.55        3334.00           6661         164.00       713.62
  101.57        3334.25           6664         176.00       765.93
  101.61        3334.50           6668         175.00       761.57
  101.64        3334.75           6672         198.00       861.84
  101.66        3335.00           6676         244.00      1062.37
  101.69        3335.25           6679         256.00      1114.69
  101.73        3335.50           6683         298.00      1297.79
  101.75        3335.75           6687         449.00      1956.09
  101.78        3336.00           6691        1319.00      5749.53
  101.81        3336.25           6694        3538.00     15429.15
  101.84        3336.50           6698        9517.00     41540.36
  101.87        3336.75           6702       17525.00     76581.07
  101.90        3337.00           6706       25673.00    112315.30
  101.93        3337.25           6709       31961.00    139948.40
  101.96        3337.50           6713       39905.00    174929.00
  101.99        3337.75           6717       47346.00    207766.10
  102.02        3338.00           6721       55254.00    242740.10
  102.05        3338.25           6724       61146.00    268849.30
  102.08        3338.50           6728       69046.00    303925.50
  102.11        3338.75           6732       77047.00    339530.90
  102.14        3339.00           6736       85273.00    376222.90
  102.17        3339.25           6739       91476.00    403948.70
  102.19        3339.50           6743      100150.00    442802.50
  102.23        3339.75           6747      108303.00    479411.60
  102.26        3340.00           6751      116036.00    514214.70
  102.28        3340.25           6754      121683.00    539679.10
  102.32        3340.50           6758      129302.00    574102.50
  102.34        3340.75           6762      136317.00    605864.60
  102.37        3341.00           6766      142545.00    634118.30
  102.40        3341.25           6769      145123.00    645828.70
  102.43        3341.50           6773      146121.00    650364.30
  102.46        3341.75           6777      144579.00    643356.90
  102.49        3342.00           6781      139833.00    621808.80
  102.52        3342.25           6784      134060.00    595638.50
  102.55        3342.50           6788      125855.00    558519.10
  102.58        3342.75           6792      118187.00    523909.40
  102.61        3343.00           6795      112198.00    496931.60
  102.64        3343.25           6799      104196.00    460959.30
  102.67        3343.50           6803       96032.00    424344.50
  102.69        3343.75           6807       88471.00    390511.00
  102.73        3344.00           6811       80213.00    353642.50
  102.76        3344.25           6814       74164.00    326691.80
  102.79        3344.50           6818       65987.00    290334.00
  102.82        3344.75           6822       57775.00    253906.00
  102.85        3345.00           6826       49714.00    218230.50
  102.88        3345.25           6829       43826.00    192223.70
  102.90        3345.50           6833       36024.00    157829.60
  102.94        3345.75           6837       27367.00    119754.90
  102.97        3346.00           6841       19047.00     83249.82
  102.99        3346.25           6844       13445.00     58718.34
  103.03        3346.50           6848        6274.00     27372.27
  103.06        3346.75           6852        2016.00      8789.31
  103.08        3347.00           6856         620.00      2701.63
  103.11        3347.25           6859         391.00      1703.23
  103.14        3347.50           6863         273.00      1188.80
  103.17        3347.75           6867         245.00      1066.73
  103.20        3348.00           6871         218.00       949.03
  103.24        3348.25           6874         208.00       905.43
  103.26        3348.50           6878         206.00       896.71
  103.29        3348.75           6882         192.00       835.68
  103.32        3349.00           6886         180.00       783.37
  103.35        3349.25           6889         188.00       818.24
  103.38        3349.50           6893         179.00       779.01
  103.41        3349.75           6897         171.00       744.13
  103.44        3350.00           6901         179.00       779.01
  103.47        3350.25           6904         185.00       805.16
  103.50        3350.50           6908         186.00       809.52
  103.53        3350.75           6912         173.00       752.85
  103.56        3351.00           6916         176.00       765.93
HL scan finished at 01:45:30
end
