************************************************************
  HL Scan of (1) Internal mercury lamp
************************************************************
Integration time is 0.2294 seconds per sample
dh090217El Arenosillo 37.1 6.73 2.21pr1000
************************************************************
Dead Time -------------------------  3.2E-08 
Number of Cycles Used -------------  4 
Starting Wavelength (Angstroms) ---  3331 
Final Wavelength (Angstoms) -------  3351 
Wavelength Increment (Angstroms) --  .25 
Filter Wheel #1 Position ---------- (1) Ground quartz diffuser (ND=2.32)
Filter Wheel #2 Position ---------- 



************************************************************
HL scan start time = 01:36:58
Dark Count =  .1 


Time (GMT)  Wavelength (Ang)  Step Number  Raw Counts  Counts/Second

   98.42        3331.00           6616         153.00       666.54
   99.45        3331.25           6620         128.00       557.55
   99.48        3331.50           6623         114.00       496.52
   99.51        3331.75           6627         162.00       705.77
   99.54        3332.00           6631         124.00       540.11
   99.57        3332.25           6635         116.00       505.24
   99.60        3332.50           6638         143.00       622.94
   99.63        3332.75           6642         138.00       601.14
   99.66        3333.00           6646         108.00       470.36
   99.68        3333.25           6649         117.00       509.60
   99.72        3333.50           6653         117.00       509.60
   99.74        3333.75           6657         110.00       479.08
   99.77        3334.00           6661         122.00       531.40
   99.80        3334.25           6664         102.00       444.21
   99.83        3334.50           6668         156.00       679.61
   99.86        3334.75           6672         138.00       601.14
   99.89        3335.00           6676         137.00       596.79
   99.92        3335.25           6679         164.00       714.49
   99.95        3335.50           6683         190.00       827.83
   99.97        3335.75           6687         305.00      1329.18
  100.00        3336.00           6691        1132.00      4934.96
  100.03        3336.25           6694        2516.00     10971.16
  100.06        3336.50           6698        5402.00     23565.72
  100.09        3336.75           6702        9126.00     39832.35
  100.12        3337.00           6706       13026.00     56885.94
  100.15        3337.25           6709       15969.00     69767.19
  100.18        3337.50           6713       19624.00     85779.61
  100.20        3337.75           6717       23625.00    103326.70
  100.24        3338.00           6721       27572.00    120656.30
  100.27        3338.25           6724       30472.00    133401.30
  100.30        3338.50           6728       34444.00    150874.40
  100.33        3338.75           6732       38239.00    167587.30
  100.36        3339.00           6736       42521.00    186466.40
  100.39        3339.25           6739       45505.00    199636.10
  100.41        3339.50           6743       49407.00    216874.40
  100.45        3339.75           6747       53387.00    234476.80
  100.48        3340.00           6751       57233.00    251505.60
  100.50        3340.25           6754       60331.00    265236.00
  100.53        3340.50           6758       64142.00    282143.10
  100.56        3340.75           6762       67415.00    296678.20
  100.59        3341.00           6766       69603.00    306402.40
  100.62        3341.25           6769       70621.00    310928.80
  100.65        3341.50           6773       71003.00    312627.70
  100.68        3341.75           6777       69579.00    306295.70
  100.71        3342.00           6781       67104.00    295296.50
  100.73        3342.25           6784       64102.00    281965.60
  100.77        3342.50           6788       60025.00    263879.30
  100.79        3342.75           6792       56335.00    247527.90
  100.82        3343.00           6795       53134.00    233357.30
  100.85        3343.25           6799       48811.00    214240.10
  100.88        3343.50           6803       44727.00    196201.40
  100.91        3343.75           6807       41022.00    179854.70
  100.94        3344.00           6811       37137.00    162732.30
  100.97        3344.25           6814       34407.00    150711.60
  101.00        3344.50           6818       30538.00    133691.50
  101.03        3344.75           6822       26423.00    115609.60
  101.06        3345.00           6826       22408.00     97987.25
  101.09        3345.25           6829       19131.00     83618.83
  101.12        3345.50           6833       14989.00     65476.64
  101.15        3345.75           6837       11022.00     48120.69
  101.18        3346.00           6841        7031.00     30679.19
  101.21        3346.25           6844        4569.00     19929.45
  101.24        3346.50           6848        2121.00      9248.16
  101.27        3346.75           6852         721.00      3142.86
  101.30        3347.00           6856         280.00      1220.19
  101.33        3347.25           6859         199.00       867.07
  101.36        3347.50           6863         170.00       740.65
  101.39        3347.75           6867         144.00       627.30
  101.42        3348.00           6871         136.00       592.43
  101.45        3348.25           6874         144.00       627.30
  101.47        3348.50           6878         134.00       583.71
  101.51        3348.75           6882         145.00       631.66
  101.53        3349.00           6886         126.00       548.83
  101.56        3349.25           6889         132.00       574.99
  101.59        3349.50           6893         145.00       631.66
  101.62        3349.75           6897         116.00       505.24
  101.65        3350.00           6901         152.00       662.18
  101.68        3350.25           6904         130.00       566.27
  101.71        3350.50           6908         164.00       714.49
  101.74        3350.75           6912         152.00       662.18
  101.76        3351.00           6916         124.00       540.11
HL scan finished at 01:43:42
end
