************************************************************
  HL Scan of (1) Internal mercury lamp
************************************************************
Integration time is 0.2294 seconds per sample
dh160218El Arenosillo 37.1 6.73 2.47pr1000
************************************************************
Dead Time -------------------------  3.2E-08 
Number of Cycles Used -------------  4 
Starting Wavelength (Angstroms) ---  3331 
Final Wavelength (Angstoms) -------  3351 
Wavelength Increment (Angstroms) --  .25 
Filter Wheel #1 Position ---------- (1) Ground quartz diffuser (ND=2.32)
Filter Wheel #2 Position ---------- 



************************************************************
HL scan start time = 01:38:46
Dark Count =  .3 


Time (GMT)  Wavelength (Ang)  Step Number  Raw Counts  Counts/Second

  100.20        3331.00           6616         158.00       687.46
  101.24        3331.25           6620         161.00       700.54
  101.26        3331.50           6623         159.00       691.82
  101.29        3331.75           6627         162.00       704.90
  101.32        3332.00           6631         171.00       744.13
  101.36        3332.25           6635         161.00       700.54
  101.38        3332.50           6638         153.00       665.66
  101.41        3332.75           6642         152.00       661.30
  101.44        3333.00           6646         163.00       709.26
  101.47        3333.25           6649         148.00       643.87
  101.50        3333.50           6653         176.00       765.93
  101.53        3333.75           6657         160.00       696.18
  101.56        3334.00           6661         171.00       744.13
  101.59        3334.25           6664         179.00       779.01
  101.61        3334.50           6668         181.00       787.73
  101.65        3334.75           6672         202.00       879.27
  101.68        3335.00           6676         227.00       988.26
  101.70        3335.25           6679         235.00      1023.14
  101.73        3335.50           6683         280.00      1219.32
  101.77        3335.75           6687         458.00      1995.33
  101.79        3336.00           6691        1400.00      6102.76
  101.82        3336.25           6694        3719.00     16218.97
  101.85        3336.50           6698        9909.00     43253.82
  101.88        3336.75           6702       18145.00     79297.30
  101.91        3337.00           6706       26846.00    117466.40
  101.94        3337.25           6709       33590.00    147115.10
  101.96        3337.50           6713       41801.00    183289.40
  102.00        3337.75           6717       49859.00    218871.50
  102.03        3338.00           6721       57778.00    253919.30
  102.05        3338.25           6724       63998.00    281503.10
  102.09        3338.50           6728       71783.00    316096.30
  102.12        3338.75           6732       80932.00    356849.10
  102.15        3339.00           6736       88979.00    392781.80
  102.17        3339.25           6739       95206.00    420644.70
  102.21        3339.50           6743      103725.00    458844.60
  102.24        3339.75           6747      112551.00    498520.50
  102.27        3340.00           6751      120711.00    535293.00
  102.30        3340.25           6754      126510.00    561479.10
  102.33        3340.50           6758      134594.00    598057.30
  102.35        3340.75           6762      141784.00    630663.30
  102.38        3341.00           6766      146870.00    653769.30
  102.42        3341.25           6769      149470.00    665594.70
  102.44        3341.50           6773      150650.00    670964.50
  102.47        3341.75           6777      149347.00    665035.00
  102.50        3342.00           6781      144312.00    642143.80
  102.53        3342.25           6784      137907.00    613072.90
  102.56        3342.50           6788      129842.00    576545.10
  102.59        3342.75           6792      121204.00    537517.50
  102.61        3343.00           6795      114968.00    509403.50
  102.64        3343.25           6799      106733.00    472355.20
  102.67        3343.50           6803       98768.00    436605.60
  102.70        3343.75           6807       90406.00    399162.60
  102.73        3344.00           6811       81744.00    360471.20
  102.76        3344.25           6814       75473.00    332520.00
  102.79        3344.50           6818       67702.00    297952.50
  102.82        3344.75           6822       59148.00    259990.60
  102.85        3345.00           6826       50349.00    221037.90
  102.88        3345.25           6829       44566.00    195489.80
  102.91        3345.50           6833       35917.00    157358.40
  102.94        3345.75           6837       27597.00    120765.30
  102.97        3346.00           6841       19583.00     85599.02
  103.00        3346.25           6844       13492.00     58923.99
  103.02        3346.50           6848        6781.00     29586.41
  103.06        3346.75           6852        2086.00      9094.63
  103.09        3347.00           6856         637.00      2775.75
  103.11        3347.25           6859         412.00      1794.79
  103.14        3347.50           6863         266.00      1158.28
  103.18        3347.75           6867         230.00      1001.34
  103.20        3348.00           6871         204.00       887.99
  103.23        3348.25           6874         206.00       896.71
  103.26        3348.50           6878         186.00       809.52
  103.29        3348.75           6882         195.00       848.76
  103.32        3349.00           6886         176.00       765.93
  103.35        3349.25           6889         173.00       752.85
  103.38        3349.50           6893         169.00       735.41
  103.41        3349.75           6897         176.00       765.93
  103.44        3350.00           6901         182.00       792.09
  103.46        3350.25           6904         168.00       731.05
  103.50        3350.50           6908         182.00       792.09
  103.52        3350.75           6912         160.00       696.18
  103.55        3351.00           6916         171.00       744.13
HL scan finished at 01:45:30
end
