************************************************************
  HL Scan of (1) Internal mercury lamp
************************************************************
Integration time is 0.2294 seconds per sample
dh160217El Arenosillo 37.1 6.73 2.5pr1000
************************************************************
Dead Time -------------------------  3.2E-08 
Number of Cycles Used -------------  4 
Starting Wavelength (Angstroms) ---  3331 
Final Wavelength (Angstoms) -------  3351 
Wavelength Increment (Angstroms) --  .25 
Filter Wheel #1 Position ---------- (1) Ground quartz diffuser (ND=2.32)
Filter Wheel #2 Position ---------- 



************************************************************
HL scan start time = 01:36:41
Dark Count =  .2 


Time (GMT)  Wavelength (Ang)  Step Number  Raw Counts  Counts/Second

   98.15        3331.00           6616         112.00       487.37
   99.18        3331.25           6620         110.00       478.65
   99.21        3331.50           6623         134.00       583.27
   99.24        3331.75           6627         124.00       539.68
   99.27        3332.00           6631         116.00       504.80
   99.30        3332.25           6635         135.00       587.63
   99.33        3332.50           6638         112.00       487.37
   99.36        3332.75           6642         129.00       561.47
   99.39        3333.00           6646         119.00       517.88
   99.41        3333.25           6649         118.00       513.52
   99.45        3333.50           6653         120.00       522.24
   99.48        3333.75           6657         127.00       552.76
   99.50        3334.00           6661         107.00       465.57
   99.53        3334.25           6664         120.00       522.24
   99.57        3334.50           6668         124.00       539.68
   99.59        3334.75           6672         129.00       561.47
   99.62        3335.00           6676         150.00       653.02
   99.66        3335.25           6679         159.00       692.26
   99.69        3335.50           6683         166.00       722.77
   99.71        3335.75           6687         221.00       962.54
   99.75        3336.00           6691         533.00      2322.75
   99.78        3336.25           6694        1451.00      6325.61
   99.80        3336.50           6698        3886.00     16948.16
   99.83        3336.75           6702        7431.00     32425.96
   99.86        3337.00           6706       11249.00     49112.87
   99.89        3337.25           6709       13937.00     60871.73
   99.92        3337.50           6713       17688.00     77295.58
   99.94        3337.75           6717       21850.00     95539.25
   99.98        3338.00           6721       25680.00    112346.50
  100.01        3338.25           6724       28709.00    125651.60
  100.03        3338.50           6728       32670.00    143067.60
  100.07        3338.75           6732       36424.00    159591.50
  100.10        3339.00           6736       40654.00    178231.60
  100.12        3339.25           6739       43888.00    192497.80
  100.15        3339.50           6743       48201.00    211544.00
  100.19        3339.75           6747       52055.00    228583.10
  100.22        3340.00           6751       55863.00    245437.10
  100.24        3340.25           6754       58834.00    258599.30
  100.27        3340.50           6758       62429.00    274540.90
  100.30        3340.75           6762       65801.00    289508.40
  100.33        3341.00           6766       69096.00    304148.10
  100.35        3341.25           6769       70618.00    310915.00
  100.39        3341.50           6773       71225.00    313614.60
  100.42        3341.75           6777       70688.00    311226.30
  100.44        3342.00           6781       69021.00    303814.70
  100.47        3342.25           6784       66459.00    292430.80
  100.50        3342.50           6788       62920.00    276719.40
  100.53        3342.75           6792       59727.00    262557.70
  100.56        3343.00           6795       56171.00    246801.10
  100.59        3343.25           6799       52181.00    229140.50
  100.62        3343.50           6803       48109.00    211137.50
  100.65        3343.75           6807       43952.00    192780.20
  100.68        3344.00           6811       40033.00    175493.70
  100.71        3344.25           6814       37174.00    162894.90
  100.74        3344.50           6818       33468.00    146578.70
  100.77        3344.75           6822       28957.00    126741.40
  100.80        3345.00           6826       25242.00    110423.50
  100.83        3345.25           6829       22207.00     97105.12
  100.86        3345.50           6833       18194.00     79512.44
  100.88        3345.75           6837       14304.00     62477.89
  100.92        3346.00           6841       10320.00     45050.95
  100.95        3346.25           6844        7473.00     32609.43
  100.97        3346.50           6848        4013.00     17502.39
  101.01        3346.75           6852        1647.00      7180.38
  101.04        3347.00           6856         555.00      2418.67
  101.06        3347.25           6859         284.00      1237.19
  101.09        3347.50           6863         193.00       840.48
  101.13        3347.75           6867         147.00       639.94
  101.15        3348.00           6871         170.00       740.21
  101.18        3348.25           6874         126.00       548.40
  101.21        3348.50           6878         137.00       596.35
  101.24        3348.75           6882         117.00       509.16
  101.27        3349.00           6886         119.00       517.88
  101.30        3349.25           6889         116.00       504.80
  101.33        3349.50           6893         125.00       544.04
  101.36        3349.75           6897         165.00       718.41
  101.39        3350.00           6901         131.00       570.19
  101.41        3350.25           6904         127.00       552.76
  101.45        3350.50           6908         125.00       544.04
  101.47        3350.75           6912         115.00       500.44
  101.50        3351.00           6916         137.00       596.35
HL scan finished at 01:43:27
end
