************************************************************
  HL Scan of (1) Internal mercury lamp
************************************************************
Integration time is 0.2294 seconds per sample
dh090218El Arenosillo 37.1 6.73 2.15pr1000
************************************************************
Dead Time -------------------------  3.2E-08 
Number of Cycles Used -------------  4 
Starting Wavelength (Angstroms) ---  3331 
Final Wavelength (Angstoms) -------  3351 
Wavelength Increment (Angstroms) --  .25 
Filter Wheel #1 Position ---------- (1) Ground quartz diffuser (ND=2.32)
Filter Wheel #2 Position ---------- 



************************************************************
HL scan start time = 01:38:21
Dark Count =  .1 


Time (GMT)  Wavelength (Ang)  Step Number  Raw Counts  Counts/Second

   99.79        3331.00           6616         148.00       644.74
  100.83        3331.25           6620         164.00       714.49
  100.86        3331.50           6623         149.00       649.10
  100.89        3331.75           6627         165.00       718.85
  100.91        3332.00           6631         154.00       670.89
  100.95        3332.25           6635         159.00       692.69
  100.98        3332.50           6638         161.00       701.41
  101.00        3332.75           6642         164.00       714.49
  101.03        3333.00           6646         156.00       679.61
  101.07        3333.25           6649         157.00       683.97
  101.09        3333.50           6653         162.00       705.77
  101.12        3333.75           6657         160.00       697.05
  101.15        3334.00           6661         171.00       745.00
  101.18        3334.25           6664         166.00       723.21
  101.21        3334.50           6668         181.00       788.60
  101.24        3334.75           6672         188.00       819.11
  101.27        3335.00           6676         247.00      1076.32
  101.30        3335.25           6679         222.00       967.34
  101.33        3335.50           6683         271.00      1180.95
  101.36        3335.75           6687         370.00      1612.55
  101.39        3336.00           6691         982.00      4280.88
  101.42        3336.25           6694        2443.00     10652.72
  101.45        3336.50           6698        6802.00     29679.00
  101.47        3336.75           6702       13157.00     57459.09
  101.51        3337.00           6706       19961.00     87256.82
  101.54        3337.25           6709       25252.00    110467.90
  101.56        3337.50           6713       32036.00    140279.10
  101.59        3337.75           6717       39053.00    171174.40
  101.63        3338.00           6721       45803.00    200952.00
  101.66        3338.25           6724       51075.00    224249.00
  101.68        3338.50           6728       57532.00    252830.20
  101.71        3338.75           6732       63966.00    281362.00
  101.75        3339.00           6736       71424.00    314500.20
  101.78        3339.25           6739       76498.00    337086.00
  101.80        3339.50           6743       83329.00    367544.70
  101.83        3339.75           6747       90382.00    399056.10
  101.87        3340.00           6751       97520.00    431012.50
  101.89        3340.25           6754      101784.00    450133.50
  101.92        3340.50           6758      108101.00    478504.40
  101.95        3340.75           6762      114271.00    506265.20
  101.98        3341.00           6766      119206.00    528505.10
  102.01        3341.25           6769      121903.00    540672.90
  102.04        3341.50           6773      123364.00    547268.30
  102.06        3341.75           6777      122449.00    543137.40
  102.10        3342.00           6781      118584.00    525700.30
  102.12        3342.25           6784      114035.00    505202.40
  102.15        3342.50           6788      107086.00    473942.30
  102.18        3342.75           6792       99812.00    441287.60
  102.21        3343.00           6795       94878.00    419176.70
  102.24        3343.25           6799       87940.00    388138.50
  102.27        3343.50           6803       80994.00    357126.50
  102.30        3343.75           6807       74349.00    327516.20
  102.33        3344.00           6811       67732.00    298086.60
  102.36        3344.25           6814       62713.00    275801.40
  102.39        3344.50           6818       55884.00    245530.60
  102.42        3344.75           6822       48933.00    214779.30
  102.45        3345.00           6826       41820.00    183374.10
  102.48        3345.25           6829       36210.00    158649.50
  102.50        3345.50           6833       29342.00    128433.90
  102.54        3345.75           6837       22391.00     97912.66
  102.57        3346.00           6841       15504.00     67731.21
  102.60        3346.25           6844       11015.00     48090.08
  102.62        3346.50           6848        5519.00     24076.52
  102.66        3346.75           6852        1838.00      8013.82
  102.68        3347.00           6856         581.00      2532.46
  102.71        3347.25           6859         338.00      1473.04
  102.74        3347.50           6863         252.00      1098.12
  102.77        3347.75           6867         223.00       971.70
  102.80        3348.00           6871         190.00       827.83
  102.83        3348.25           6874         184.00       801.68
  102.85        3348.50           6878         192.00       836.55
  102.89        3348.75           6882         166.00       723.21
  102.92        3349.00           6886         167.00       727.57
  102.94        3349.25           6889         172.00       749.36
  102.97        3349.50           6893         172.00       749.36
  103.01        3349.75           6897         175.00       762.44
  103.03        3350.00           6901         176.00       766.80
  103.06        3350.25           6904         174.00       758.08
  103.09        3350.50           6908         175.00       762.44
  103.12        3350.75           6912         172.00       749.36
  103.15        3351.00           6916         174.00       758.08
HL scan finished at 01:45:05
end
