************************************************************
  HL Scan of (1) Internal mercury lamp
************************************************************
Integration time is 0.2294 seconds per sample
dh230217El Arenosillo 37.1 6.73 2.76pr1000
************************************************************
Dead Time -------------------------  3.2E-08 
Number of Cycles Used -------------  4 
Starting Wavelength (Angstroms) ---  3331 
Final Wavelength (Angstoms) -------  3351 
Wavelength Increment (Angstroms) --  .25 
Filter Wheel #1 Position ---------- (1) Ground quartz diffuser (ND=2.32)
Filter Wheel #2 Position ---------- 



************************************************************
HL scan start time = 01:36:32
Dark Count =  .4 


Time (GMT)  Wavelength (Ang)  Step Number  Raw Counts  Counts/Second

   97.99        3331.00           6616          96.00       416.74
   99.03        3331.25           6620         135.00       586.76
   99.05        3331.50           6623         113.00       490.85
   99.09        3331.75           6627          98.00       425.46
   99.11        3332.00           6631         106.00       460.34
   99.14        3332.25           6635         113.00       490.85
   99.17        3332.50           6638         113.00       490.85
   99.20        3332.75           6642         114.00       495.21
   99.23        3333.00           6646         142.00       617.27
   99.26        3333.25           6649         113.00       490.85
   99.29        3333.50           6653         103.00       447.26
   99.32        3333.75           6657         134.00       582.40
   99.35        3334.00           6661         110.00       477.78
   99.38        3334.25           6664         109.00       473.42
   99.41        3334.50           6668         131.00       569.32
   99.44        3334.75           6672         143.00       621.63
   99.46        3335.00           6676         141.00       612.92
   99.50        3335.25           6679         165.00       717.54
   99.53        3335.50           6683         168.00       730.62
   99.56        3335.75           6687         248.00      1079.37
   99.59        3336.00           6691         738.00      3215.68
   99.62        3336.25           6694        1889.00      8234.95
   99.64        3336.50           6698        4684.00     20430.09
   99.67        3336.75           6702        8283.00     36147.28
   99.71        3337.00           6706       12022.00     52492.64
   99.74        3337.25           6709       14990.00     65479.69
   99.76        3337.50           6713       18842.00     82351.00
   99.79        3337.75           6717       22865.00     99990.75
   99.82        3338.00           6721       26423.00    115608.20
   99.85        3338.25           6724       29421.00    128779.80
   99.88        3338.50           6728       33487.00    146661.40
   99.91        3338.75           6732       37152.00    162797.10
   99.94        3339.00           6736       40618.00    178072.00
   99.97        3339.25           6739       44115.00    193498.70
  100.00        3339.50           6743       47819.00    209855.30
  100.03        3339.75           6747       51883.00    227821.40
  100.06        3340.00           6751       55521.00    243921.80
  100.09        3340.25           6754       58239.00    255961.60
  100.12        3340.50           6758       61872.00    272069.00
  100.15        3340.75           6762       65475.00    288059.90
  100.18        3341.00           6766       68246.00    300369.40
  100.20        3341.25           6769       69876.00    307614.80
  100.24        3341.50           6773       70162.00    308886.40
  100.27        3341.75           6777       69694.00    306805.60
  100.29        3342.00           6781       67298.00    296157.00
  100.33        3342.25           6784       64576.00    284068.40
  100.36        3342.50           6788       60546.00    266188.00
  100.38        3342.75           6792       56689.00    249094.50
  100.41        3343.00           6795       53631.00    235555.30
  100.44        3343.25           6799       49957.00    219304.40
  100.47        3343.50           6803       45840.00    201114.10
  100.50        3343.75           6807       41743.00    183033.20
  100.53        3344.00           6811       38044.00    166726.80
  100.56        3344.25           6814       35341.00    154821.80
  100.59        3344.50           6818       31445.00    137678.50
  100.62        3344.75           6822       27453.00    120132.30
  100.66        3345.00           6826       23553.00    103009.40
  100.68        3345.25           6829       20506.00     89644.75
  100.71        3345.50           6833       16724.00     73072.15
  100.74        3345.75           6837       12934.00     56482.12
  100.78        3346.00           6841        9073.00     39599.41
  100.80        3346.25           6844        6085.00     26546.52
  100.83        3346.50           6848        3008.00     13116.23
  100.87        3346.75           6852        1076.00      4689.46
  100.89        3347.00           6856         382.00      1663.56
  100.92        3347.25           6859         227.00       987.83
  100.95        3347.50           6863         172.00       748.06
  100.98        3347.75           6867         156.00       678.31
  101.00        3348.00           6871         159.00       691.38
  101.03        3348.25           6874         180.00       782.93
  101.06        3348.50           6878         148.00       643.43
  101.09        3348.75           6882         130.00       564.96
  101.12        3349.00           6886         108.00       469.06
  101.14        3349.25           6889         161.00       700.10
  101.18        3349.50           6893         105.00       455.98
  101.21        3349.75           6897         120.00       521.37
  101.23        3350.00           6901         108.00       469.06
  101.27        3350.25           6904         135.00       586.76
  101.30        3350.50           6908         117.00       508.29
  101.32        3350.75           6912         117.00       508.29
  101.35        3351.00           6916         141.00       612.92
HL scan finished at 01:43:18
end
