************************************************************
  HL Scan of (1) Internal mercury lamp
************************************************************
Integration time is 0.2294 seconds per sample
dh230218El Arenosillo 37.1 6.73 2.27pr1000
************************************************************
Dead Time -------------------------  3.2E-08 
Number of Cycles Used -------------  4 
Starting Wavelength (Angstroms) ---  3331 
Final Wavelength (Angstoms) -------  3351 
Wavelength Increment (Angstroms) --  .25 
Filter Wheel #1 Position ---------- (1) Ground quartz diffuser (ND=2.32)
Filter Wheel #2 Position ---------- 



************************************************************
HL scan start time = 01:38:44
Dark Count =  .2 


Time (GMT)  Wavelength (Ang)  Step Number  Raw Counts  Counts/Second

  100.17        3331.00           6616         150.00       653.02
  101.21        3331.25           6620         146.00       635.58
  101.24        3331.50           6623         163.00       709.69
  101.27        3331.75           6627         158.00       687.90
  101.30        3332.00           6631         148.00       644.30
  101.33        3332.25           6635         155.00       674.82
  101.35        3332.50           6638         151.00       657.38
  101.38        3332.75           6642         146.00       635.58
  101.42        3333.00           6646         159.00       692.26
  101.44        3333.25           6649         145.00       631.22
  101.47        3333.50           6653         153.00       666.10
  101.51        3333.75           6657         160.00       696.62
  101.53        3334.00           6661         173.00       753.29
  101.56        3334.25           6664         168.00       731.49
  101.59        3334.50           6668         168.00       731.49
  101.61        3334.75           6672         185.00       805.60
  101.64        3335.00           6676         217.00       945.10
  101.67        3335.25           6679         232.00      1010.49
  101.71        3335.50           6683         241.00      1049.73
  101.73        3335.75           6687         316.00      1376.70
  101.76        3336.00           6691         852.00      3713.61
  101.79        3336.25           6694        2148.00      9365.49
  101.82        3336.50           6698        6261.00     27315.93
  101.85        3336.75           6702       13007.00     56802.37
  101.88        3337.00           6706       20167.00     88159.44
  101.91        3337.25           6709       26157.00    114441.00
  101.94        3337.50           6713       33400.00    146279.50
  101.97        3337.75           6717       40335.00    176825.10
  102.00        3338.00           6721       47701.00    209334.80
  102.03        3338.25           6724       52761.00    231706.40
  102.06        3338.50           6728       59464.00    261391.80
  102.09        3338.75           6732       66693.00    293470.20
  102.12        3339.00           6736       74499.00    328183.50
  102.15        3339.25           6739       80066.00    352987.50
  102.18        3339.50           6743       87484.00    386100.20
  102.21        3339.75           6747       94738.00    418549.30
  102.24        3340.00           6751      101574.00    449190.90
  102.27        3340.25           6754      106638.00    471928.70
  102.30        3340.50           6758      113784.00    504071.70
  102.33        3340.75           6762      120057.00    532343.00
  102.36        3341.00           6766      125388.00    556409.50
  102.38        3341.25           6769      128640.00    571108.90
  102.42        3341.50           6773      130273.00    578495.50
  102.44        3341.75           6777      128863.00    572117.30
  102.47        3342.00           6781      125298.00    556003.00
  102.50        3342.25           6784      120501.00    534346.00
  102.53        3342.50           6788      113304.00    501910.60
  102.56        3342.75           6792      105999.00    469057.70
  102.59        3343.00           6795      100545.00    444574.60
  102.62        3343.25           6799       93107.00    411247.50
  102.65        3343.50           6803       86124.00    380024.10
  102.68        3343.75           6807       79195.00    349104.10
  102.72        3344.00           6811       72157.00    317760.50
  102.74        3344.25           6814       67132.00    295420.40
  102.77        3344.50           6818       60043.00    263958.60
  102.80        3344.75           6822       52734.00    231587.00
  102.84        3345.00           6826       46196.00    202687.00
  102.86        3345.25           6829       40499.00    177548.20
  102.89        3345.50           6833       32757.00    143450.40
  102.93        3345.75           6837       25698.00    112425.50
  102.95        3346.00           6841       18636.00     81449.16
  102.98        3346.25           6844       13724.00     59939.62
  103.01        3346.50           6848        7518.00     32806.00
  103.04        3346.75           6852        3024.00     13186.91
  103.07        3347.00           6856         924.00      4027.55
  103.10        3347.25           6859         429.00      1869.34
  103.13        3347.50           6863         304.00      1324.38
  103.16        3347.75           6867         217.00       945.10
  103.19        3348.00           6871         200.00       870.99
  103.22        3348.25           6874         223.00       971.26
  103.25        3348.50           6878         183.00       796.88
  103.28        3348.75           6882         173.00       753.29
  103.30        3349.00           6886         162.00       705.33
  103.34        3349.25           6889         178.00       775.08
  103.37        3349.50           6893         162.00       705.33
  103.39        3349.75           6897         160.00       696.62
  103.43        3350.00           6901         171.00       744.57
  103.45        3350.25           6904         169.00       735.85
  103.48        3350.50           6908         171.00       744.57
  103.51        3350.75           6912         174.00       757.65
  103.54        3351.00           6916         159.00       692.26
HL scan finished at 01:45:29
end
