************************************************************
  HL Scan of (1) Internal mercury lamp
************************************************************
Integration time is 0.2294 seconds per sample
dh020317El Arenosillo 37.1 6.73 2.47pr1000
************************************************************
Dead Time -------------------------  3.2E-08 
Number of Cycles Used -------------  4 
Starting Wavelength (Angstroms) ---  3331 
Final Wavelength (Angstoms) -------  3351 
Wavelength Increment (Angstroms) --  .25 
Filter Wheel #1 Position ---------- (1) Ground quartz diffuser (ND=2.32)
Filter Wheel #2 Position ---------- 



************************************************************
HL scan start time = 01:35:05
Dark Count =  .2 


Time (GMT)  Wavelength (Ang)  Step Number  Raw Counts  Counts/Second

   96.54        3331.00           6616         126.00       548.40
   97.58        3331.25           6620         111.00       483.01
   97.60        3331.50           6623         124.00       539.68
   97.64        3331.75           6627         128.00       557.12
   97.66        3332.00           6631         125.00       544.04
   97.69        3332.25           6635         118.00       513.52
   97.72        3332.50           6638         136.00       591.99
   97.75        3332.75           6642         105.00       456.85
   97.78        3333.00           6646         115.00       500.44
   97.81        3333.25           6649         133.00       578.91
   97.84        3333.50           6653         107.00       465.57
   97.87        3333.75           6657         139.00       605.07
   97.90        3334.00           6661         114.00       496.08
   97.93        3334.25           6664         109.00       474.29
   97.96        3334.50           6668         135.00       587.63
   97.99        3334.75           6672         126.00       548.40
   98.02        3335.00           6676         138.00       600.71
   98.04        3335.25           6679         166.00       722.77
   98.08        3335.50           6683         171.00       744.57
   98.11        3335.75           6687         242.00      1054.09
   98.13        3336.00           6691         854.00      3722.33
   98.16        3336.25           6694        2321.00     10120.10
   98.19        3336.50           6698        5375.00     23447.40
   98.22        3336.75           6702        9054.00     39517.25
   98.25        3337.00           6706       12844.00     56089.25
   98.28        3337.25           6709       15545.00     67910.28
   98.31        3337.50           6713       19396.00     84779.83
   98.34        3337.75           6717       22858.00     99960.92
   98.37        3338.00           6721       26659.00    116645.60
   98.40        3338.25           6724       29427.00    128807.10
   98.43        3338.50           6728       33219.00    145483.10
   98.46        3338.75           6732       36820.00    161335.60
   98.49        3339.00           6736       40811.00    178923.90
   98.52        3339.25           6739       43238.00    189629.40
   98.55        3339.50           6743       47009.00    206277.80
   98.58        3339.75           6747       50950.00    223695.80
   98.61        3340.00           6751       54708.00    240323.20
   98.64        3340.25           6754       57403.00    252258.30
   98.67        3340.50           6758       61238.00    269257.70
   98.70        3340.75           6762       64560.00    283998.30
   98.73        3341.00           6766       67090.00    295233.80
   98.76        3341.25           6769       68456.00    301303.50
   98.79        3341.50           6773       68999.00    303716.90
   98.81        3341.75           6777       68193.00    300134.70
   98.85        3342.00           6781       65699.00    289055.50
   98.88        3342.25           6784       63363.00    278685.30
   98.91        3342.50           6788       59897.00    263311.40
   98.94        3342.75           6792       55892.00    245565.50
   98.97        3343.00           6795       53259.00    233910.00
   98.99        3343.25           6799       49132.00    215658.40
   99.02        3343.50           6803       45355.00    198973.40
   99.06        3343.75           6807       41359.00    181340.50
   99.09        3344.00           6811       37538.00    164498.40
   99.11        3344.25           6814       35136.00    153920.20
   99.15        3344.50           6818       31018.00    135801.60
   99.18        3344.75           6822       27467.00    120194.60
   99.21        3345.00           6826       23975.00    104862.20
   99.23        3345.25           6829       20968.00     91671.32
   99.27        3345.50           6833       17068.00     74579.71
   99.30        3345.75           6837       13368.00     58381.85
   99.32        3346.00           6841        9227.00     40273.32
   99.35        3346.25           6844        6367.00     27778.82
   99.39        3346.50           6848        3113.00     13575.21
   99.41        3346.75           6852        1145.00      4991.21
   99.44        3347.00           6856         381.00      1660.07
   99.47        3347.25           6859         216.00       940.74
   99.50        3347.50           6863         177.00       770.73
   99.53        3347.75           6867         144.00       626.87
   99.55        3348.00           6871         134.00       583.27
   99.59        3348.25           6874         134.00       583.27
   99.61        3348.50           6878         170.00       740.21
   99.64        3348.75           6882         135.00       587.63
   99.67        3349.00           6886         139.00       605.07
   99.70        3349.25           6889         126.00       548.40
   99.73        3349.50           6893         101.00       439.41
   99.76        3349.75           6897         131.00       570.19
   99.79        3350.00           6901         131.00       570.19
   99.82        3350.25           6904         131.00       570.19
   99.85        3350.50           6908         132.00       574.55
   99.88        3350.75           6912         142.00       618.15
   99.91        3351.00           6916         135.00       587.63
HL scan finished at 01:41:51
end
