************************************************************
  HL Scan of (1) Internal mercury lamp
************************************************************
Integration time is 0.2294 seconds per sample
dh090318El Arenosillo 37.1 6.73 2.74pr1000
************************************************************
Dead Time -------------------------  3.2E-08 
Number of Cycles Used -------------  4 
Starting Wavelength (Angstroms) ---  3331 
Final Wavelength (Angstoms) -------  3351 
Wavelength Increment (Angstroms) --  .25 
Filter Wheel #1 Position ---------- (1) Ground quartz diffuser (ND=2.32)
Filter Wheel #2 Position ---------- 



************************************************************
HL scan start time = 01:31:15
Dark Count =  .3 


Time (GMT)  Wavelength (Ang)  Step Number  Raw Counts  Counts/Second

   92.68        3331.00           6616         156.00       678.74
   93.72        3331.25           6620         148.00       643.87
   93.75        3331.50           6623         150.00       652.59
   93.77        3331.75           6627         153.00       665.66
   93.80        3332.00           6631         147.00       639.51
   93.84        3332.25           6635         157.00       683.10
   93.86        3332.50           6638         150.00       652.59
   93.89        3332.75           6642         151.00       656.94
   93.92        3333.00           6646         173.00       752.85
   93.96        3333.25           6649         143.00       622.07
   93.98        3333.50           6653         150.00       652.59
   94.01        3333.75           6657         149.00       648.23
   94.04        3334.00           6661         155.00       674.38
   94.07        3334.25           6664         174.00       757.21
   94.10        3334.50           6668         191.00       831.32
   94.13        3334.75           6672         209.00       909.79
   94.16        3335.00           6676         232.00      1010.06
   94.19        3335.25           6679         283.00      1232.39
   94.22        3335.50           6683         319.00      1389.34
   94.25        3335.75           6687         547.00      2383.36
   94.28        3336.00           6691        2066.00      9007.39
   94.31        3336.25           6694        5275.00     23010.40
   94.34        3336.50           6698       13324.00     58188.90
   94.37        3336.75           6702       22736.00     99425.25
   94.40        3337.00           6706       32737.00    143361.90
   94.43        3337.25           6709       40029.00    175475.60
   94.46        3337.50           6713       49475.00    217174.10
   94.48        3337.75           6717       58667.00    257858.70
   94.51        3338.00           6721       68469.00    301360.90
   94.55        3338.25           6724       75259.00    331567.00
   94.58        3338.50           6728       84826.00    374226.80
   94.60        3338.75           6732       94769.00    418687.70
   94.63        3339.00           6736      104583.00    462697.10
   94.67        3339.25           6739      111598.00    494231.50
   94.69        3339.50           6743      120946.00    536353.30
   94.72        3339.75           6747      130652.00    580209.80
   94.75        3340.00           6751      140269.00    623787.10
   94.78        3340.25           6754      147861.00    658275.50
   94.81        3340.50           6758      156675.00    698411.90
   94.84        3340.75           6762      165892.00    740495.20
   94.87        3341.00           6766      172067.00    768753.50
   94.90        3341.25           6769      174295.00    778962.10
   94.93        3341.50           6773      175182.00    783028.30
   94.95        3341.75           6777      173072.00    773357.60
   94.98        3342.00           6781      166264.00    742196.00
   95.02        3342.25           6784      159972.00    713452.30
   95.04        3342.50           6788      150364.00    669662.90
   95.07        3342.75           6792      140790.00    626151.40
   95.10        3343.00           6795      133864.00    594750.60
   95.13        3343.25           6799      124545.00    552600.90
   95.16        3343.50           6803      115024.00    509655.70
   95.19        3343.75           6807      105073.00    464897.70
   95.22        3344.00           6811       94858.00    419086.20
   95.25        3344.25           6814       87872.00    387833.70
   95.28        3344.50           6818       78111.00    344272.00
   95.31        3344.75           6822       68330.00    300743.10
   95.34        3345.00           6826       58997.00    259321.30
   95.37        3345.25           6829       51842.00    227640.50
   95.40        3345.50           6833       42457.00    186183.10
   95.43        3345.75           6837       32215.00    141065.60
   95.46        3346.00           6841       21933.00     95902.84
   95.49        3346.25           6844       14877.00     64985.49
   95.52        3346.50           6848        6893.00     30075.58
   95.55        3346.75           6852        2156.00      9399.95
   95.57        3347.00           6856         657.00      2862.95
   95.61        3347.25           6859         393.00      1711.95
   95.64        3347.50           6863         293.00      1275.99
   95.66        3347.75           6867         228.00       992.62
   95.69        3348.00           6871         208.00       905.43
   95.73        3348.25           6874         213.00       927.23
   95.76        3348.50           6878         185.00       805.16
   95.78        3348.75           6882         186.00       809.52
   95.81        3349.00           6886         177.00       770.29
   95.85        3349.25           6889         190.00       826.96
   95.88        3349.50           6893         181.00       787.73
   95.90        3349.75           6897         177.00       770.29
   95.93        3350.00           6901         175.00       761.57
   95.97        3350.25           6904         170.00       739.77
   95.99        3350.50           6908         174.00       757.21
   96.02        3350.75           6912         168.00       731.05
   96.05        3351.00           6916         185.00       805.16
HL scan finished at 01:37:59
end
