************************************************************
  HL Scan of (1) Internal mercury lamp
************************************************************
Integration time is 0.2294 seconds per sample
dh020318El Arenosillo 37.1 6.73 2.68pr1000
************************************************************
Dead Time -------------------------  3.2E-08 
Number of Cycles Used -------------  4 
Starting Wavelength (Angstroms) ---  3331 
Final Wavelength (Angstoms) -------  3351 
Wavelength Increment (Angstroms) --  .25 
Filter Wheel #1 Position ---------- (1) Ground quartz diffuser (ND=2.32)
Filter Wheel #2 Position ---------- 



************************************************************
HL scan start time = 01:35:53
Dark Count =  .3 


Time (GMT)  Wavelength (Ang)  Step Number  Raw Counts  Counts/Second

   97.32        3331.00           6616         155.00       674.38
   98.36        3331.25           6620         164.00       713.62
   98.39        3331.50           6623         160.00       696.18
   98.41        3331.75           6627         166.00       722.34
   98.45        3332.00           6631         165.00       717.98
   98.47        3332.25           6635         154.00       670.02
   98.50        3332.50           6638         161.00       700.54
   98.53        3332.75           6642         149.00       648.23
   98.56        3333.00           6646         162.00       704.90
   98.59        3333.25           6649         159.00       691.82
   98.61        3333.50           6653         159.00       691.82
   98.65        3333.75           6657         159.00       691.82
   98.68        3334.00           6661         179.00       779.01
   98.70        3334.25           6664         165.00       717.98
   98.74        3334.50           6668         183.00       796.45
   98.77        3334.75           6672         227.00       988.26
   98.79        3335.00           6676         249.00      1084.17
   98.82        3335.25           6679         263.00      1145.20
   98.85        3335.50           6683         312.00      1358.82
   98.88        3335.75           6687         591.00      2575.19
   98.91        3336.00           6691        2250.00      9809.97
   98.94        3336.25           6694        5587.00     24372.54
   98.97        3336.50           6698       12959.00     56591.93
   99.00        3336.75           6702       22038.00     96363.38
   99.03        3337.00           6706       30838.00    135009.70
   99.06        3337.25           6709       38170.00    167282.40
   99.09        3337.50           6713       47999.00    210651.00
   99.12        3337.75           6717       56503.00    248271.10
   99.15        3338.00           6721       66435.00    292323.80
   99.18        3338.25           6724       73241.00    322583.50
   99.21        3338.50           6728       83000.00    366075.50
   99.24        3338.75           6732       92764.00    409711.90
   99.26        3339.00           6736      103038.00    455760.50
   99.29        3339.25           6739      110327.00    488513.20
   99.32        3339.50           6743      119395.00    529356.60
   99.36        3339.75           6747      129598.00    575441.40
   99.38        3340.00           6751      138237.00    614569.40
   99.41        3340.25           6754      145049.00    645492.40
   99.44        3340.50           6758      153773.00    685185.50
   99.47        3340.75           6762      162264.00    723916.60
   99.50        3341.00           6766      168135.00    750753.70
   99.53        3341.25           6769      170348.00    760881.80
   99.56        3341.50           6773      170919.00    763496.10
   99.59        3341.75           6777      168609.00    752922.60
   99.61        3342.00           6781      163283.00    728571.30
   99.65        3342.25           6784      157498.00    702164.90
   99.68        3342.50           6788      147491.00    656592.90
   99.71        3342.75           6792      138429.00    615440.10
   99.74        3343.00           6795      130660.00    580246.10
   99.77        3343.25           6799      120440.00    534070.30
   99.80        3343.50           6803      110769.00    490501.60
   99.82        3343.75           6807      101222.00    447611.10
   99.86        3344.00           6811       91593.00    404472.10
   99.89        3344.25           6814       84314.00    371940.80
   99.91        3344.50           6818       75623.00    333188.00
   99.94        3344.75           6822       66087.00    290778.10
   99.98        3345.00           6826       57033.00    250618.70
  100.00        3345.25           6829       49482.00    217205.00
  100.03        3345.50           6833       40072.00    175665.20
  100.07        3345.75           6837       30982.00    135642.90
  100.09        3346.00           6841       20937.00     91534.94
  100.12        3346.25           6844       14422.00     62993.90
  100.16        3346.50           6848        7192.00     31381.54
  100.18        3346.75           6852        2610.00     11380.34
  100.21        3347.00           6856         812.00      3538.76
  100.24        3347.25           6859         446.00      1943.02
  100.27        3347.50           6863         312.00      1358.82
  100.30        3347.75           6867         262.00      1140.84
  100.33        3348.00           6871         222.00       966.46
  100.36        3348.25           6874         230.00      1001.34
  100.39        3348.50           6878         207.00       901.07
  100.42        3348.75           6882         187.00       813.88
  100.45        3349.00           6886         180.00       783.37
  100.48        3349.25           6889         176.00       765.93
  100.51        3349.50           6893         178.00       774.65
  100.54        3349.75           6897         176.00       765.93
  100.57        3350.00           6901         164.00       713.62
  100.60        3350.25           6904         180.00       783.37
  100.63        3350.50           6908         168.00       731.05
  100.66        3350.75           6912         201.00       874.92
  100.69        3351.00           6916         171.00       744.13
HL scan finished at 01:42:37
end
