************************************************************
  HL Scan of (1) Internal mercury lamp
************************************************************
Integration time is 0.2294 seconds per sample
dh090317El Arenosillo 37.1 6.73 2.6pr1000
************************************************************
Dead Time -------------------------  3.2E-08 
Number of Cycles Used -------------  4 
Starting Wavelength (Angstroms) ---  3331 
Final Wavelength (Angstoms) -------  3351 
Wavelength Increment (Angstroms) --  .25 
Filter Wheel #1 Position ---------- (1) Ground quartz diffuser (ND=2.32)
Filter Wheel #2 Position ---------- 



************************************************************
HL scan start time = 01:33:54
Dark Count =  .4 


Time (GMT)  Wavelength (Ang)  Step Number  Raw Counts  Counts/Second

   95.37        3331.00           6616         165.00       717.54
   96.40        3331.25           6620         129.00       560.60
   96.43        3331.50           6623         126.00       547.52
   96.46        3331.75           6627         110.00       477.78
   96.49        3332.00           6631         122.00       530.09
   96.52        3332.25           6635         103.00       447.26
   96.55        3332.50           6638         119.00       517.01
   96.58        3332.75           6642         100.00       434.18
   96.61        3333.00           6646         109.00       473.42
   96.64        3333.25           6649         134.00       582.40
   96.67        3333.50           6653         109.00       473.42
   96.70        3333.75           6657         128.00       556.24
   96.73        3334.00           6661         113.00       490.85
   96.75        3334.25           6664         124.00       538.81
   96.79        3334.50           6668         130.00       564.96
   96.82        3334.75           6672         176.00       765.49
   96.84        3335.00           6676         133.00       578.04
   96.88        3335.25           6679         136.00       591.12
   96.91        3335.50           6683         156.00       678.31
   96.93        3335.75           6687         214.00       931.15
   96.97        3336.00           6691         684.00      2980.23
   96.99        3336.25           6694        1711.00      7458.62
   97.02        3336.50           6698        4327.00     18871.90
   97.06        3336.75           6702        7628.00     33285.66
   97.08        3337.00           6706       11455.00     50012.85
   97.11        3337.25           6709       14247.00     62227.54
   97.14        3337.50           6713       17720.00     77434.88
   97.17        3337.75           6717       21208.00     92722.84
   97.20        3338.00           6721       24936.00    109079.30
   97.24        3338.25           6724       27415.00    119965.30
   97.26        3338.50           6728       30901.00    135286.20
   97.29        3338.75           6732       34545.00    151317.70
   97.33        3339.00           6736       38498.00    168727.20
   97.35        3339.25           6739       41397.00    181507.20
   97.38        3339.50           6743       45582.00    199974.80
   97.42        3339.75           6747       49702.00    218177.10
   97.45        3340.00           6751       53605.00    235440.20
   97.47        3340.25           6754       56647.00    248908.50
   97.51        3340.50           6758       60351.00    265323.40
   97.53        3340.75           6762       63838.00    280792.50
   97.56        3341.00           6766       66498.00    292603.20
   97.59        3341.25           6769       67250.00    295943.80
   97.62        3341.50           6773       67972.00    299151.80
   97.65        3341.75           6777       67319.00    296250.30
   97.68        3342.00           6781       65218.00    286918.70
   97.71        3342.25           6784       62686.00    275680.30
   97.73        3342.50           6788       58957.00    259143.60
   97.77        3342.75           6792       55151.00    242283.60
   97.80        3343.00           6795       52557.00    230803.00
   97.82        3343.25           6799       48712.00    213801.30
   97.86        3343.50           6803       45243.00    198478.10
   97.89        3343.75           6807       41470.00    181829.10
   97.91        3344.00           6811       37857.00    165902.90
   97.95        3344.25           6814       34774.00    152325.70
   97.98        3344.50           6818       30796.00    134824.60
   98.01        3344.75           6822       27123.00    118682.70
   98.04        3345.00           6826       22915.00    100210.10
   98.07        3345.25           6829       20083.00     87790.31
   98.10        3345.50           6833       16308.00     71250.32
   98.13        3345.75           6837       12632.00     55160.93
   98.16        3346.00           6841        8827.00     38524.36
   98.18        3346.25           6844        5908.00     25773.65
   98.22        3346.50           6848        2943.00     12832.65
   98.24        3346.75           6852        1068.00      4654.57
   98.27        3347.00           6856         381.00      1659.20
   98.31        3347.25           6859         228.00       992.18
   98.34        3347.50           6863         163.00       708.82
   98.36        3347.75           6867         148.00       643.43
   98.40        3348.00           6871         163.00       708.82
   98.43        3348.25           6874         129.00       560.60
   98.45        3348.50           6878         151.00       656.51
   98.49        3348.75           6882         137.00       595.48
   98.52        3349.00           6886         121.00       525.73
   98.54        3349.25           6889         118.00       512.65
   98.58        3349.50           6893         146.00       634.71
   98.61        3349.75           6897         132.00       573.68
   98.63        3350.00           6901         116.00       503.93
   98.67        3350.25           6904         109.00       473.42
   98.69        3350.50           6908         155.00       673.95
   98.72        3350.75           6912         129.00       560.60
   98.75        3351.00           6916         167.00       726.26
HL scan finished at 01:40:41
end
