************************************************************
  HL Scan of (1) Internal mercury lamp
************************************************************
Integration time is 0.2294 seconds per sample
dh160317El Arenosillo 37.1 6.73 2.56pr1000
************************************************************
Dead Time -------------------------  3.2E-08 
Number of Cycles Used -------------  4 
Starting Wavelength (Angstroms) ---  3331 
Final Wavelength (Angstoms) -------  3351 
Wavelength Increment (Angstroms) --  .25 
Filter Wheel #1 Position ---------- (1) Ground quartz diffuser (ND=2.32)
Filter Wheel #2 Position ---------- 



************************************************************
HL scan start time = 01:32:50
Dark Count =  .4 


Time (GMT)  Wavelength (Ang)  Step Number  Raw Counts  Counts/Second

   94.30        3331.00           6616         118.00       512.65
   95.34        3331.25           6620         102.00       442.90
   95.36        3331.50           6623         131.00       569.32
   95.39        3331.75           6627         120.00       521.37
   95.43        3332.00           6631         102.00       442.90
   95.45        3332.25           6635         123.00       534.45
   95.48        3332.50           6638         146.00       634.71
   95.51        3332.75           6642         112.00       486.49
   95.53        3333.00           6646         128.00       556.24
   95.57        3333.25           6649         146.00       634.71
   95.60        3333.50           6653         126.00       547.52
   95.62        3333.75           6657         101.00       438.54
   95.66        3334.00           6661         129.00       560.60
   95.69        3334.25           6664         122.00       530.09
   95.72        3334.50           6668         138.00       599.84
   95.75        3334.75           6672         148.00       643.43
   95.78        3335.00           6676         151.00       656.51
   95.81        3335.25           6679         151.00       656.51
   95.84        3335.50           6683         174.00       756.78
   95.87        3335.75           6687         238.00      1035.78
   95.90        3336.00           6691         888.00      3869.70
   95.93        3336.25           6694        2282.00      9949.11
   95.95        3336.50           6698        5282.00     23040.52
   95.99        3336.75           6702        8600.00     37532.41
   96.02        3337.00           6706       12382.00     54067.31
   96.05        3337.25           6709       15018.00     65602.26
   96.08        3337.50           6713       18945.00     82802.38
   96.11        3337.75           6717       22687.00     99209.85
   96.14        3338.00           6721       26439.00    115678.50
   96.17        3338.25           6724       29200.00    127808.50
   96.20        3338.50           6728       33333.00    145983.80
   96.23        3338.75           6732       37313.00    163506.30
   96.26        3339.00           6736       40858.00    179130.30
   96.30        3339.25           6739       43453.00    190577.20
   96.33        3339.50           6743       47213.00    207178.10
   96.35        3339.75           6747       51380.00    225596.60
   96.39        3340.00           6751       55109.00    242097.60
   96.42        3340.25           6754       58002.00    254911.40
   96.44        3340.50           6758       62122.00    273178.00
   96.48        3340.75           6762       65497.00    288157.50
   96.50        3341.00           6766       68180.00    300076.00
   96.53        3341.25           6769       69418.00    305578.60
   96.57        3341.50           6773       69816.00    307348.00
   96.59        3341.75           6777       68893.00    303244.90
   96.63        3342.00           6781       66838.00    294113.50
   96.66        3342.25           6784       64281.00    282758.80
   96.68        3342.50           6788       60826.00    267429.70
   96.72        3342.75           6792       56886.00    249967.10
   96.74        3343.00           6795       54032.00    237330.00
   96.77        3343.25           6799       50297.00    220807.50
   96.80        3343.50           6803       46333.00    203291.20
   96.83        3343.75           6807       42428.00    186054.80
   96.86        3344.00           6811       38604.00    169194.30
   96.89        3344.25           6814       35959.00    157542.90
   96.92        3344.50           6818       32143.00    140748.50
   96.95        3344.75           6822       28517.00    124807.00
   96.98        3345.00           6826       24536.00    107323.50
   97.01        3345.25           6829       21759.00     95139.26
   97.04        3345.50           6833       17312.00     75647.59
   97.07        3345.75           6837       13517.00     59032.95
   97.11        3346.00           6841        9417.00     41102.85
   97.13        3346.25           6844        6448.00     28131.68
   97.16        3346.50           6848        3222.00     14049.91
   97.20        3346.75           6852        1221.00      5321.74
   97.22        3347.00           6856         400.00      1742.03
   97.25        3347.25           6859         231.00      1005.26
   97.28        3347.50           6863         179.00       778.57
   97.31        3347.75           6867         160.00       695.74
   97.35        3348.00           6871         158.00       687.02
   97.37        3348.25           6874         141.00       612.92
   97.40        3348.50           6878         134.00       582.40
   97.44        3348.75           6882         144.00       625.99
   97.46        3349.00           6886         126.00       547.52
   97.49        3349.25           6889         116.00       503.93
   97.53        3349.50           6893         121.00       525.73
   97.55        3349.75           6897         107.00       464.70
   97.59        3350.00           6901         138.00       599.84
   97.61        3350.25           6904         106.00       460.34
   97.64        3350.50           6908         113.00       490.85
   97.68        3350.75           6912         115.00       499.57
   97.70        3351.00           6916         117.00       508.29
HL scan finished at 01:39:38
end
