************************************************************
  HL Scan of (1) Internal mercury lamp
************************************************************
Integration time is 0.2294 seconds per sample
dh230317El Arenosillo 37.1 6.73 2.19pr1000
************************************************************
Dead Time -------------------------  3.2E-08 
Number of Cycles Used -------------  4 
Starting Wavelength (Angstroms) ---  3331 
Final Wavelength (Angstoms) -------  3351 
Wavelength Increment (Angstroms) --  .25 
Filter Wheel #1 Position ---------- (1) Ground quartz diffuser (ND=2.32)
Filter Wheel #2 Position ---------- 



************************************************************
HL scan start time = 01:32:03
Dark Count =  .1 


Time (GMT)  Wavelength (Ang)  Step Number  Raw Counts  Counts/Second

   93.51        3331.00           6616         115.00       500.88
   94.55        3331.25           6620         113.00       492.16
   94.57        3331.50           6623         128.00       557.55
   94.61        3331.75           6627         109.00       474.72
   94.63        3332.00           6631         148.00       644.74
   94.66        3332.25           6635         115.00       500.88
   94.69        3332.50           6638         114.00       496.52
   94.72        3332.75           6642         125.00       544.47
   94.75        3333.00           6646         146.00       636.02
   94.77        3333.25           6649         112.00       487.80
   94.80        3333.50           6653         139.00       605.50
   94.83        3333.75           6657         130.00       566.27
   94.86        3334.00           6661         129.00       561.91
   94.88        3334.25           6664         149.00       649.10
   94.92        3334.50           6668         126.00       548.83
   94.94        3334.75           6672         155.00       675.25
   94.97        3335.00           6676         138.00       601.14
   95.00        3335.25           6679         150.00       653.46
   95.03        3335.50           6683         181.00       788.60
   95.06        3335.75           6687         359.00      1564.59
   95.09        3336.00           6691        1262.00      5501.84
   95.12        3336.25           6694        2851.00     12432.58
   95.15        3336.50           6698        6169.00     26914.63
   95.18        3336.75           6702        9398.00     41021.12
   95.20        3337.00           6706       13090.00     57165.95
   95.24        3337.25           6709       15972.00     69780.32
   95.27        3337.50           6713       19426.00     84911.75
   95.30        3337.75           6717       22900.00    100145.60
   95.32        3338.00           6721       26394.00    115482.20
   95.36        3338.25           6724       29342.00    128433.90
   95.39        3338.50           6728       32843.00    143829.20
   95.42        3338.75           6732       36675.00    160697.40
   95.45        3339.00           6736       40417.00    177187.10
   95.48        3339.25           6739       43156.00    189268.00
   95.51        3339.50           6743       46999.00    206234.10
   95.53        3339.75           6747       50513.00    221763.90
   95.57        3340.00           6751       53991.00    237149.90
   95.60        3340.25           6754       57064.00    250756.90
   95.62        3340.50           6758       60791.00    267275.80
   95.65        3340.75           6762       63787.00    280567.40
   95.69        3341.00           6766       66091.00    290796.80
   95.71        3341.25           6769       66836.00    294105.90
   95.74        3341.50           6773       67317.00    296242.70
   95.77        3341.75           6777       65916.00    290019.60
   95.80        3342.00           6781       63551.00    279520.00
   95.83        3342.25           6784       60801.00    267320.10
   95.86        3342.50           6788       57223.00    251461.30
   95.89        3342.75           6792       53523.00    235078.70
   95.92        3343.00           6795       50749.00    222807.40
   95.94        3343.25           6799       47154.00    206918.80
   95.98        3343.50           6803       43411.00    190393.20
   96.01        3343.75           6807       39894.00    174881.40
   96.04        3344.00           6811       36432.00    159627.20
   96.06        3344.25           6814       33596.00    147142.40
   96.10        3344.50           6818       29699.00    130003.10
   96.13        3344.75           6822       25976.00    113646.60
   96.16        3345.00           6826       22112.00     96688.85
   96.19        3345.25           6829       19468.00     85095.84
   96.22        3345.50           6833       15367.00     67131.43
   96.25        3345.75           6837       11527.00     50329.04
   96.28        3346.00           6841        7615.00     33230.17
   96.31        3346.25           6844        4827.00     21055.60
   96.34        3346.50           6848        2174.00      9479.34
   96.37        3346.75           6852         683.00      2977.18
   96.40        3347.00           6856         261.00      1137.36
   96.43        3347.25           6859         197.00       858.35
   96.46        3347.50           6863         161.00       701.41
   96.48        3347.75           6867         157.00       683.97
   96.52        3348.00           6871         153.00       666.54
   96.55        3348.25           6874         146.00       636.02
   96.57        3348.50           6878         135.00       588.07
   96.60        3348.75           6882         144.00       627.30
   96.64        3349.00           6886         153.00       666.54
   96.66        3349.25           6889         139.00       605.50
   96.69        3349.50           6893         118.00       513.96
   96.72        3349.75           6897         111.00       483.44
   96.75        3350.00           6901         152.00       662.18
   96.78        3350.25           6904         112.00       487.80
   96.81        3350.50           6908         145.00       631.66
   96.84        3350.75           6912         116.00       505.24
   96.87        3351.00           6916         127.00       553.19
HL scan finished at 01:38:48
end
