************************************************************
  HL Scan of (1) Internal mercury lamp
************************************************************
Integration time is 0.2294 seconds per sample
dh300318El Arenosillo 37.1 6.73 2.54pr1000
************************************************************
Dead Time -------------------------  3.2E-08 
Number of Cycles Used -------------  4 
Starting Wavelength (Angstroms) ---  3331 
Final Wavelength (Angstoms) -------  3351 
Wavelength Increment (Angstroms) --  .25 
Filter Wheel #1 Position ---------- (1) Ground quartz diffuser (ND=2.32)
Filter Wheel #2 Position ---------- 



************************************************************
HL scan start time = 01:30:12
Dark Count =  .2 


Time (GMT)  Wavelength (Ang)  Step Number  Raw Counts  Counts/Second

   91.65        3331.00           6616         149.00       648.66
   92.69        3331.25           6620         155.00       674.82
   92.72        3331.50           6623         142.00       618.15
   92.74        3331.75           6627         167.00       727.13
   92.77        3332.00           6631         156.00       679.18
   92.80        3332.25           6635         163.00       709.69
   92.83        3332.50           6638         140.00       609.43
   92.85        3332.75           6642         137.00       596.35
   92.89        3333.00           6646         144.00       626.87
   92.91        3333.25           6649         155.00       674.82
   92.94        3333.50           6653         162.00       705.33
   92.97        3333.75           6657         154.00       670.46
   93.00        3334.00           6661         145.00       631.22
   93.03        3334.25           6664         161.00       700.97
   93.06        3334.50           6668         164.00       714.05
   93.09        3334.75           6672         181.00       788.16
   93.12        3335.00           6676         200.00       870.99
   93.14        3335.25           6679         246.00      1071.53
   93.17        3335.50           6683         299.00      1302.58
   93.21        3335.75           6687         623.00      2715.14
   93.23        3336.00           6691        2470.00     10770.06
   93.26        3336.25           6694        5746.00     25067.18
   93.29        3336.50           6698       12770.00     55765.51
   93.32        3336.75           6702       20629.00     90184.92
   93.35        3337.00           6706       28187.00    123357.80
   93.38        3337.25           6709       34194.00    149773.70
   93.41        3337.50           6713       41963.00    184004.40
   93.44        3337.75           6717       49636.00    217886.20
   93.46        3338.00           6721       56809.00    249626.90
   93.49        3338.25           6724       62998.00    277065.50
   93.53        3338.50           6728       70998.00    312605.00
   93.56        3338.75           6732       78939.00    347962.90
   93.58        3339.00           6736       86952.00    383723.10
   93.62        3339.25           6739       92748.00    409640.80
   93.65        3339.50           6743      100272.00    443350.20
   93.67        3339.75           6747      108395.00    479825.60
   93.70        3340.00           6751      115965.00    513895.20
   93.73        3340.25           6754      122320.00    542554.60
   93.76        3340.50           6758      129940.00    576988.90
   93.79        3340.75           6762      136969.00    608820.50
   93.82        3341.00           6766      141966.00    631489.90
   93.85        3341.25           6769      143959.00    640540.60
   93.87        3341.50           6773      144831.00    644502.30
   93.90        3341.75           6777      141733.00    630432.10
   93.93        3342.00           6781      136195.00    605312.10
   93.96        3342.25           6784      130447.00    579282.70
   93.99        3342.50           6788      123169.00    546387.40
   94.02        3342.75           6792      115196.00    510430.90
   94.04        3343.00           6795      109214.00    483508.00
   94.07        3343.25           6799      100863.00    446001.10
   94.10        3343.50           6803       92573.00    408857.60
   94.13        3343.75           6807       84553.00    373008.30
   94.16        3344.00           6811       76934.00    339027.90
   94.19        3344.25           6814       70940.00    312347.00
   94.22        3344.50           6818       63256.00    278210.40
   94.25        3344.75           6822       56092.00    246451.30
   94.28        3345.00           6826       47868.00    210072.70
   94.31        3345.25           6829       41968.00    184026.50
   94.34        3345.50           6833       33398.00    146270.70
   94.37        3345.75           6837       25023.00    109462.10
   94.40        3346.00           6841       16369.00     71518.33
   94.42        3346.25           6844       10599.00     46270.73
   94.46        3346.50           6848        4638.00     20230.18
   94.49        3346.75           6852        1408.00      6138.09
   94.51        3347.00           6856         508.00      2213.76
   94.54        3347.25           6859         337.00      1468.25
   94.57        3347.50           6863         273.00      1189.23
   94.60        3347.75           6867         229.00       997.42
   94.63        3348.00           6871         205.00       892.79
   94.66        3348.25           6874         182.00       792.52
   94.69        3348.50           6878         180.00       783.80
   94.72        3348.75           6882         174.00       757.65
   94.75        3349.00           6886         161.00       700.97
   94.78        3349.25           6889         164.00       714.05
   94.81        3349.50           6893         163.00       709.69
   94.83        3349.75           6897         159.00       692.26
   94.87        3350.00           6901         160.00       696.62
   94.90        3350.25           6904         159.00       692.26
   94.92        3350.50           6908         166.00       722.77
   94.95        3350.75           6912         165.00       718.41
   94.98        3351.00           6916         168.00       731.49
HL scan finished at 01:36:55
end
