************************************************************
  HL Scan of (1) Internal mercury lamp
************************************************************
Integration time is 0.2294 seconds per sample
dh300317El Arenosillo 37.1 6.73 2.5pr1000
************************************************************
Dead Time -------------------------  3.2E-08 
Number of Cycles Used -------------  4 
Starting Wavelength (Angstroms) ---  3331 
Final Wavelength (Angstoms) -------  3351 
Wavelength Increment (Angstroms) --  .25 
Filter Wheel #1 Position ---------- (1) Ground quartz diffuser (ND=2.32)
Filter Wheel #2 Position ---------- 



************************************************************
HL scan start time = 01:27:33
Dark Count =  .3 


Time (GMT)  Wavelength (Ang)  Step Number  Raw Counts  Counts/Second

   89.02        3331.00           6616         109.00       473.85
   90.05        3331.25           6620         106.00       460.77
   90.07        3331.50           6623         128.00       556.68
   90.10        3331.75           6627         125.00       543.60
   90.14        3332.00           6631         112.00       486.93
   90.16        3332.25           6635         107.00       465.13
   90.19        3332.50           6638         144.00       626.43
   90.22        3332.75           6642         125.00       543.60
   90.25        3333.00           6646         111.00       482.57
   90.28        3333.25           6649         105.00       456.41
   90.30        3333.50           6653          79.00       343.07
   90.32        3333.75           6657         135.00       587.20
   90.35        3334.00           6661         126.00       547.96
   90.38        3334.25           6664         149.00       648.23
   90.41        3334.50           6668         159.00       691.82
   90.44        3334.75           6672         128.00       556.68
   90.47        3335.00           6676         158.00       687.46
   90.50        3335.25           6679         159.00       691.82
   90.52        3335.50           6683         186.00       809.52
   90.56        3335.75           6687         307.00      1337.02
   90.59        3336.00           6691        1130.00      4925.36
   90.62        3336.25           6694        2518.00     10979.01
   90.65        3336.50           6698        5982.00     26097.20
   90.68        3336.75           6702        9749.00     42554.43
   90.70        3337.00           6706       13630.00     59527.85
   90.73        3337.25           6709       16518.00     72170.40
   90.77        3337.50           6713       20275.00     88632.46
   90.79        3337.75           6717       23745.00    103852.40
   90.82        3338.00           6721       27604.00    120796.00
   90.85        3338.25           6724       30288.00    132591.50
   90.89        3338.50           6728       34124.00    149465.10
   90.91        3338.75           6732       37758.00    165467.10
   90.94        3339.00           6736       42010.00    184211.30
   90.97        3339.25           6739       44769.00    196385.90
   91.00        3339.50           6743       48580.00    213218.40
   91.03        3339.75           6747       52434.00    230259.30
   91.06        3340.00           6751       56287.00    247314.40
   91.09        3340.25           6754       59141.00    259959.60
   91.12        3340.50           6758       62680.00    275654.10
   91.15        3340.75           6762       66410.00    292212.70
   91.17        3341.00           6766       68871.00    303147.60
   91.20        3341.25           6769       69867.00    307575.20
   91.23        3341.50           6773       69717.00    306908.30
   91.26        3341.75           6777       68466.00    301347.50
   91.29        3342.00           6781       65918.00    290027.60
   91.32        3342.25           6784       63725.00    280291.40
   91.35        3342.50           6788       59855.00    263124.70
   91.38        3342.75           6792       56015.00    246109.80
   91.40        3343.00           6795       52609.00    231033.50
   91.44        3343.25           6799       49209.00    215998.30
   91.47        3343.50           6803       45067.00    197701.50
   91.49        3343.75           6807       41004.00    179774.50
   91.52        3344.00           6811       37241.00    163189.50
   91.56        3344.25           6814       34832.00    152581.50
   91.58        3344.50           6818       31135.00    136315.60
   91.61        3344.75           6822       27440.00    120075.60
   91.64        3345.00           6826       23500.00    102777.30
   91.68        3345.25           6829       20523.00     89719.74
   91.70        3345.50           6833       16526.00     72205.44
   91.73        3345.75           6837       12308.00     53744.05
   91.76        3346.00           6841        8243.00     35972.95
   91.80        3346.25           6844        5320.00     23206.86
   91.82        3346.50           6848        2426.00     10577.69
   91.85        3346.75           6852         793.00      3455.92
   91.89        3347.00           6856         314.00      1367.54
   91.91        3347.25           6859         224.00       975.18
   91.94        3347.50           6863         173.00       752.85
   91.97        3347.75           6867         150.00       652.59
   92.00        3348.00           6871         178.00       774.65
   92.03        3348.25           6874         125.00       543.60
   92.05        3348.50           6878         128.00       556.68
   92.09        3348.75           6882         121.00       526.16
   92.12        3349.00           6886         122.00       530.52
   92.14        3349.25           6889         158.00       687.46
   92.17        3349.50           6893         115.00       500.01
   92.20        3349.75           6897         167.00       726.70
   92.23        3350.00           6901         116.00       504.37
   92.26        3350.25           6904         150.00       652.59
   92.29        3350.50           6908         133.00       578.48
   92.32        3350.75           6912         136.00       591.55
   92.35        3351.00           6916         117.00       508.73
HL scan finished at 01:34:17
end
