************************************************************
  HL Scan of (1) Internal mercury lamp
************************************************************
Integration time is 0.2294 seconds per sample
dh060418El Arenosillo 37.1 6.73 2.74pr1000
************************************************************
Dead Time -------------------------  3.2E-08 
Number of Cycles Used -------------  4 
Starting Wavelength (Angstroms) ---  3331 
Final Wavelength (Angstoms) -------  3351 
Wavelength Increment (Angstroms) --  .25 
Filter Wheel #1 Position ---------- (1) Ground quartz diffuser (ND=2.32)
Filter Wheel #2 Position ---------- 



************************************************************
HL scan start time = 01:26:20
Dark Count =  .3 


Time (GMT)  Wavelength (Ang)  Step Number  Raw Counts  Counts/Second

   87.78        3331.00           6616         154.00       670.02
   88.82        3331.25           6620         155.00       674.38
   88.84        3331.50           6623         161.00       700.54
   88.87        3331.75           6627         157.00       683.10
   88.90        3332.00           6631         160.00       696.18
   88.94        3332.25           6635         157.00       683.10
   88.96        3332.50           6638         148.00       643.87
   88.99        3332.75           6642         165.00       717.98
   89.02        3333.00           6646         156.00       678.74
   89.05        3333.25           6649         153.00       665.66
   89.08        3333.50           6653         149.00       648.23
   89.11        3333.75           6657         141.00       613.35
   89.14        3334.00           6661         170.00       739.77
   89.17        3334.25           6664         176.00       765.93
   89.20        3334.50           6668         177.00       770.29
   89.23        3334.75           6672         209.00       909.79
   89.26        3335.00           6676         237.00      1031.86
   89.29        3335.25           6679         281.00      1223.67
   89.32        3335.50           6683         309.00      1345.74
   89.34        3335.75           6687         632.00      2753.95
   89.38        3336.00           6691        2426.00     10577.69
   89.41        3336.25           6694        5715.00     24931.39
   89.43        3336.50           6698       13427.00     58639.58
   89.46        3336.75           6702       22640.00     99004.09
   89.50        3337.00           6706       31930.00    139812.00
   89.52        3337.25           6709       39006.00    170966.40
   89.55        3337.50           6713       47910.00    210257.80
   89.58        3337.75           6717       56797.00    249573.30
   89.62        3338.00           6721       66268.00    291582.00
   89.64        3338.25           6724       72985.00    321444.30
   89.67        3338.50           6728       82241.00    362688.60
   89.70        3338.75           6732       91395.00    403586.30
   89.74        3339.00           6736      102276.00    452340.50
   89.76        3339.25           6739      109620.00    485333.40
   89.79        3339.50           6743      119250.00    528702.70
   89.82        3339.75           6747      129312.00    574147.60
   89.86        3340.00           6751      138258.00    614664.60
   89.88        3340.25           6754      144796.00    644342.80
   89.91        3340.50           6758      153780.00    685217.40
   89.94        3340.75           6762      162038.00    722884.50
   89.97        3341.00           6766      168286.00    751444.60
   90.00        3341.25           6769      170842.00    763143.60
   90.03        3341.50           6773      170727.00    762617.00
   90.06        3341.75           6777      168495.00    752400.80
   90.09        3342.00           6781      162274.00    723962.30
   90.11        3342.25           6784      156352.00    696939.20
   90.14        3342.50           6788      147631.00    657229.60
   90.18        3342.75           6792      138613.00    616274.60
   90.20        3343.00           6795      132007.00    586342.30
   90.23        3343.25           6799      122916.00    545244.70
   90.26        3343.50           6803      113455.00    502590.00
   90.29        3343.75           6807      103480.00    457744.70
   90.32        3344.00           6811       93752.00    414134.30
   90.35        3344.25           6814       86776.00    382936.30
   90.38        3344.50           6818       77249.00    340430.90
   90.41        3344.75           6822       67131.00    295415.50
   90.44        3345.00           6826       58053.00    255137.80
   90.47        3345.25           6829       50027.00    219614.30
   90.50        3345.50           6833       39911.00    174955.40
   90.53        3345.75           6837       30375.00    132974.00
   90.56        3346.00           6841       20013.00     87483.89
   90.59        3346.25           6844       13525.00     59068.39
   90.62        3346.50           6848        6306.00     27512.01
   90.65        3346.75           6852        2147.00      9360.69
   90.68        3347.00           6856         652.00      2841.15
   90.71        3347.25           6859         379.00      1650.92
   90.74        3347.50           6863         278.00      1210.60
   90.77        3347.75           6867         288.00      1254.19
   90.80        3348.00           6871         211.00       918.51
   90.82        3348.25           6874         199.00       866.20
   90.86        3348.50           6878         190.00       826.96
   90.89        3348.75           6882         189.00       822.60
   90.91        3349.00           6886         181.00       787.73
   90.94        3349.25           6889         164.00       713.62
   90.98        3349.50           6893         173.00       752.85
   91.00        3349.75           6897         160.00       696.18
   91.03        3350.00           6901         166.00       722.34
   91.06        3350.25           6904         166.00       722.34
   91.09        3350.50           6908         166.00       722.34
   91.12        3350.75           6912         181.00       787.73
   91.15        3351.00           6916         168.00       731.05
HL scan finished at 01:33:05
end
