************************************************************
  HL Scan of (1) Internal mercury lamp
************************************************************
Integration time is 0.2294 seconds per sample
dh060417El Arenosillo 37.1 6.73 2.62pr1000
************************************************************
Dead Time -------------------------  3.2E-08 
Number of Cycles Used -------------  4 
Starting Wavelength (Angstroms) ---  3331 
Final Wavelength (Angstoms) -------  3351 
Wavelength Increment (Angstroms) --  .25 
Filter Wheel #1 Position ---------- (1) Ground quartz diffuser (ND=2.32)
Filter Wheel #2 Position ---------- 



************************************************************
HL scan start time = 01:25:49
Dark Count =  .3 


Time (GMT)  Wavelength (Ang)  Step Number  Raw Counts  Counts/Second

   87.29        3331.00           6616         105.00       456.41
   88.32        3331.25           6620         109.00       473.85
   88.35        3331.50           6623         105.00       456.41
   88.38        3331.75           6627          98.00       425.90
   88.41        3332.00           6631          94.00       408.46
   88.44        3332.25           6635         139.00       604.63
   88.46        3332.50           6638         106.00       460.77
   88.50        3332.75           6642         104.00       452.06
   88.53        3333.00           6646         105.00       456.41
   88.55        3333.25           6649         109.00       473.85
   88.58        3333.50           6653         107.00       465.13
   88.61        3333.75           6657         126.00       547.96
   88.64        3334.00           6661         115.00       500.01
   88.67        3334.25           6664         128.00       556.68
   88.70        3334.50           6668         152.00       661.30
   88.73        3334.75           6672         134.00       582.84
   88.76        3335.00           6676         142.00       617.71
   88.79        3335.25           6679         150.00       652.59
   88.82        3335.50           6683         173.00       752.85
   88.85        3335.75           6687         308.00      1341.38
   88.87        3336.00           6691        1073.00      4676.81
   88.90        3336.25           6694        2604.00     11354.17
   88.93        3336.50           6698        5716.00     24935.76
   88.96        3336.75           6702        9346.00     40792.97
   88.99        3337.00           6706       13127.00     57326.96
   89.02        3337.25           6709       15816.00     69096.38
   89.05        3337.50           6713       19692.00     86076.78
   89.08        3337.75           6717       23528.00    102900.20
   89.11        3338.00           6721       27292.00    119425.50
   89.14        3338.25           6724       30379.00    132991.60
   89.17        3338.50           6728       34288.00    150187.00
   89.20        3338.75           6732       38498.00    168727.60
   89.23        3339.00           6736       42523.00    186474.30
   89.26        3339.25           6739       45498.00    199604.40
   89.29        3339.50           6743       49585.00    217660.30
   89.31        3339.75           6747       53355.00    234334.30
   89.35        3340.00           6751       57075.00    250804.80
   89.38        3340.25           6754       60338.00    265266.20
   89.40        3340.50           6758       64256.00    282648.30
   89.43        3340.75           6762       67369.00    296473.00
   89.47        3341.00           6766       69855.00    307521.90
   89.49        3341.25           6769       70810.00    311768.50
   89.52        3341.50           6773       71113.00    313116.00
   89.55        3341.75           6777       69774.00    307161.80
   89.59        3342.00           6781       67533.00    297201.60
   89.61        3342.25           6784       64973.00    285831.40
   89.64        3342.50           6788       61123.00    268747.20
   89.68        3342.75           6792       57267.00    251655.30
   89.70        3343.00           6795       54321.00    238609.70
   89.73        3343.25           6799       49993.00    219464.00
   89.76        3343.50           6803       45893.00    201348.50
   89.79        3343.75           6807       41794.00    183258.60
   89.82        3344.00           6811       37651.00    164995.70
   89.85        3344.25           6814       34809.00    152480.20
   89.88        3344.50           6818       30566.00    133813.70
   89.91        3344.75           6822       27109.00    118621.60
   89.94        3345.00           6826       23030.00    100715.10
   89.97        3345.25           6829       20202.00     88312.43
   90.00        3345.50           6833       15763.00     68864.32
   90.03        3345.75           6837       11814.00     51583.33
   90.06        3346.00           6841        7937.00     34636.02
   90.08        3346.25           6844        5103.00     22259.53
   90.12        3346.50           6848        2353.00     10259.25
   90.14        3346.75           6852         764.00      3329.47
   90.17        3347.00           6856         300.00      1306.51
   90.20        3347.25           6859         192.00       835.68
   90.23        3347.50           6863         160.00       696.18
   90.26        3347.75           6867         161.00       700.54
   90.29        3348.00           6871         134.00       582.84
   90.32        3348.25           6874         124.00       539.24
   90.35        3348.50           6878         139.00       604.63
   90.38        3348.75           6882         127.00       552.32
   90.41        3349.00           6886         131.00       569.76
   90.44        3349.25           6889         146.00       635.15
   90.47        3349.50           6893         129.00       561.04
   90.50        3349.75           6897         144.00       626.43
   90.52        3350.00           6901         114.00       495.65
   90.56        3350.25           6904         115.00       500.01
   90.59        3350.50           6908         139.00       604.63
   90.61        3350.75           6912         142.00       617.71
   90.65        3351.00           6916         123.00       534.88
HL scan finished at 01:32:35
end
