************************************************************
  HL Scan of (1) Internal mercury lamp
************************************************************
Integration time is 0.2294 seconds per sample
dh130417El Arenosillo 37.1 6.73 2.62pr1000
************************************************************
Dead Time -------------------------  3.2E-08 
Number of Cycles Used -------------  4 
Starting Wavelength (Angstroms) ---  3331 
Final Wavelength (Angstoms) -------  3351 
Wavelength Increment (Angstroms) --  .25 
Filter Wheel #1 Position ---------- (1) Ground quartz diffuser (ND=2.32)
Filter Wheel #2 Position ---------- 



************************************************************
HL scan start time = 01:24:19
Dark Count =  .2 


Time (GMT)  Wavelength (Ang)  Step Number  Raw Counts  Counts/Second

   85.78        3331.00           6616         130.00       565.83
   86.82        3331.25           6620         102.00       443.77
   86.84        3331.50           6623         110.00       478.65
   86.88        3331.75           6627         109.00       474.29
   86.91        3332.00           6631         101.00       439.41
   86.93        3332.25           6635          99.00       430.69
   86.96        3332.50           6638         121.00       526.60
   87.00        3332.75           6642         125.00       544.04
   87.02        3333.00           6646         101.00       439.41
   87.05        3333.25           6649         121.00       526.60
   87.08        3333.50           6653          92.00       400.18
   87.11        3333.75           6657         129.00       561.47
   87.14        3334.00           6661         114.00       496.08
   87.16        3334.25           6664         104.00       452.49
   87.19        3334.50           6668         145.00       631.22
   87.23        3334.75           6672         133.00       578.91
   87.25        3335.00           6676         150.00       653.02
   87.28        3335.25           6679         141.00       613.79
   87.32        3335.50           6683         178.00       775.08
   87.34        3335.75           6687         180.00       783.80
   87.37        3336.00           6691         388.00      1690.59
   87.40        3336.25           6694        1082.00      4716.49
   87.43        3336.50           6698        3132.00     13658.11
   87.46        3336.75           6702        6389.00     27874.90
   87.49        3337.00           6706        9933.00     43359.16
   87.52        3337.25           6709       12539.00     54754.97
   87.55        3337.50           6713       16209.00     70817.68
   87.58        3337.75           6717       19970.00     87295.83
   87.61        3338.00           6721       23736.00    103813.40
   87.64        3338.25           6724       26848.00    117475.70
   87.67        3338.50           6728       30785.00    134777.10
   87.70        3338.75           6732       34741.00    152181.30
   87.73        3339.00           6736       38824.00    170164.70
   87.76        3339.25           6739       41724.00    182950.20
   87.79        3339.50           6743       45433.00    199317.80
   87.82        3339.75           6747       49315.00    216467.30
   87.86        3340.00           6751       53212.00    233702.00
   87.88        3340.25           6754       56014.00    246105.80
   87.91        3340.50           6758       59665.00    262282.80
   87.94        3340.75           6762       63567.00    279590.60
   87.97        3341.00           6766       66515.00    292679.50
   88.00        3341.25           6769       68208.00    300201.40
   88.03        3341.50           6773       69372.00    305375.00
   88.06        3341.75           6777       69467.00    305797.30
   88.09        3342.00           6781       67416.00    296682.10
   88.12        3342.25           6784       65835.00    289659.40
   88.15        3342.50           6788       62087.00    273023.60
   88.18        3342.75           6792       58407.00    256706.90
   88.21        3343.00           6795       55615.00    244338.90
   88.24        3343.25           6799       51831.00    227592.30
   88.26        3343.50           6803       47673.00    209211.10
   88.30        3343.75           6807       43516.00    190856.10
   88.32        3344.00           6811       39780.00    174378.40
   88.35        3344.25           6814       37013.00    162185.70
   88.39        3344.50           6818       32954.00    144317.10
   88.42        3344.75           6822       29275.00    128139.00
   88.45        3345.00           6826       25490.00    111512.30
   88.47        3345.25           6829       22595.00     98807.12
   88.51        3345.50           6833       18577.00     81190.63
   88.53        3345.75           6837       14465.00     63182.55
   88.56        3346.00           6841       10671.00     46585.53
   88.59        3346.25           6844        7791.00     33998.61
   88.62        3346.50           6848        4265.00     18602.18
   88.65        3346.75           6852        1813.00      7904.35
   88.67        3347.00           6856         605.00      2636.67
   88.71        3347.25           6859         301.00      1311.30
   88.74        3347.50           6863         188.00       818.68
   88.76        3347.75           6867         149.00       648.66
   88.79        3348.00           6871         146.00       635.58
   88.83        3348.25           6874         156.00       679.18
   88.85        3348.50           6878         119.00       517.88
   88.88        3348.75           6882         105.00       456.85
   88.91        3349.00           6886         116.00       504.80
   88.95        3349.25           6889         127.00       552.76
   88.97        3349.50           6893         114.00       496.08
   89.00        3349.75           6897         135.00       587.63
   89.03        3350.00           6901         111.00       483.01
   89.06        3350.25           6904         143.00       622.51
   89.09        3350.50           6908         107.00       465.57
   89.12        3350.75           6912         146.00       635.58
   89.15        3351.00           6916         140.00       609.43
HL scan finished at 01:31:05
end
