************************************************************
  HL Scan of (1) Internal mercury lamp
************************************************************
Integration time is 0.2294 seconds per sample
dh130418El Arenosillo 37.1 6.73 2.54pr1000
************************************************************
Dead Time -------------------------  3.2E-08 
Number of Cycles Used -------------  4 
Starting Wavelength (Angstroms) ---  3331 
Final Wavelength (Angstoms) -------  3351 
Wavelength Increment (Angstroms) --  .25 
Filter Wheel #1 Position ---------- (1) Ground quartz diffuser (ND=2.32)
Filter Wheel #2 Position ---------- 



************************************************************
HL scan start time = 01:25:05
Dark Count =  .2 


Time (GMT)  Wavelength (Ang)  Step Number  Raw Counts  Counts/Second

   86.52        3331.00           6616         146.00       635.58
   87.56        3331.25           6620         161.00       700.97
   87.59        3331.50           6623         145.00       631.22
   87.61        3331.75           6627         154.00       670.46
   87.64        3332.00           6631         157.00       683.54
   87.67        3332.25           6635         160.00       696.62
   87.70        3332.50           6638         153.00       666.10
   87.73        3332.75           6642         144.00       626.87
   87.76        3333.00           6646         154.00       670.46
   87.79        3333.25           6649         159.00       692.26
   87.82        3333.50           6653         145.00       631.22
   87.84        3333.75           6657         146.00       635.58
   87.88        3334.00           6661         159.00       692.26
   87.91        3334.25           6664         164.00       714.05
   87.93        3334.50           6668         178.00       775.08
   87.96        3334.75           6672         188.00       818.68
   88.00        3335.00           6676         210.00       914.59
   88.02        3335.25           6679         246.00      1071.53
   88.05        3335.50           6683         280.00      1219.75
   88.08        3335.75           6687         351.00      1529.28
   88.11        3336.00           6691         852.00      3713.61
   88.14        3336.25           6694        2248.00      9801.68
   88.17        3336.50           6698        6648.00     29005.99
   88.20        3336.75           6702       14001.00     61151.81
   88.23        3337.00           6706       22363.00     97789.40
   88.25        3337.25           6709       28673.00    125493.40
   88.28        3337.50           6713       37007.00    162159.20
   88.31        3337.75           6717       45339.00    198902.80
   88.34        3338.00           6721       54020.00    237277.80
   88.36        3338.25           6724       60302.00    265107.00
   88.40        3338.50           6728       69136.00    304325.90
   88.43        3338.75           6732       77711.00    342489.80
   88.45        3339.00           6736       86959.00    383754.40
   88.48        3339.25           6739       93950.00    415021.10
   88.52        3339.50           6743      102599.00    453790.50
   88.55        3339.75           6747      111677.00    494587.40
   88.57        3340.00           6751      120314.00    533502.40
   88.60        3340.25           6754      126479.00    561339.40
   88.63        3340.50           6758      135172.00    600676.30
   88.66        3340.75           6762      143042.00    636375.60
   88.69        3341.00           6766      149417.00    665354.00
   88.72        3341.25           6769      152766.00    680599.00
   88.75        3341.50           6773      154518.00    688580.30
   88.78        3341.75           6777      154107.00    686707.60
   88.80        3342.00           6781      150403.00    669840.80
   88.84        3342.25           6784      145700.00    648451.30
   88.87        3342.50           6788      137011.00    609010.90
   88.90        3342.75           6792      128213.00    569178.00
   88.93        3343.00           6795      121319.00    538036.90
   88.96        3343.25           6799      112560.00    498561.40
   88.99        3343.50           6803      103554.00    458077.30
   89.01        3343.75           6807       94456.00    417286.60
   89.05        3344.00           6811       86089.00    379867.80
   89.08        3344.25           6814       80017.00    352769.00
   89.10        3344.50           6818       71959.00    316879.60
   89.14        3344.75           6822       63174.00    277846.50
   89.17        3345.00           6826       54767.00    240584.40
   89.20        3345.25           6829       47783.00    209697.10
   89.22        3345.50           6833       39080.00    171292.90
   89.26        3345.75           6837       30267.00    132499.60
   89.29        3346.00           6841       21249.00     92903.52
   89.31        3346.25           6844       15245.00     66596.88
   89.34        3346.50           6848        7749.00     33815.13
   89.38        3346.75           6852        3103.00     13531.58
   89.40        3347.00           6856         972.00      4236.84
   89.43        3347.25           6859         435.00      1895.49
   89.47        3347.50           6863         298.00      1298.22
   89.49        3347.75           6867         255.00      1110.76
   89.52        3348.00           6871         209.00       910.23
   89.55        3348.25           6874         201.00       875.35
   89.58        3348.50           6878         187.00       814.32
   89.61        3348.75           6882         180.00       783.80
   89.64        3349.00           6886         181.00       788.16
   89.67        3349.25           6889         181.00       788.16
   89.70        3349.50           6893         174.00       757.65
   89.73        3349.75           6897         178.00       775.08
   89.76        3350.00           6901         167.00       727.13
   89.79        3350.25           6904         172.00       748.93
   89.82        3350.50           6908         171.00       744.57
   89.85        3350.75           6912         181.00       788.16
   89.87        3351.00           6916         193.00       840.48
HL scan finished at 01:31:49
end
