************************************************************
  HL Scan of (1) Internal mercury lamp
************************************************************
Integration time is 0.2294 seconds per sample
dh200419El Arenosillo 37.1 6.73 2.52pr1000
************************************************************
Dead Time -------------------------  3.2E-08 
Number of Cycles Used -------------  4 
Starting Wavelength (Angstroms) ---  3331 
Final Wavelength (Angstoms) -------  3351 
Wavelength Increment (Angstroms) --  .25 
Filter Wheel #1 Position ---------- (1) Ground quartz diffuser (ND=2.32)
Filter Wheel #2 Position ---------- 



************************************************************
HL scan start time = 01:25:20
Dark Count =  .2 


Time (GMT)  Wavelength (Ang)  Step Number  Raw Counts  Counts/Second

   86.77        3331.00           6616         128.00       557.12
   87.82        3331.25           6620         116.00       504.80
   87.84        3331.50           6623         116.00       504.80
   87.87        3331.75           6627         127.00       552.76
   87.90        3332.00           6631         131.00       570.19
   87.93        3332.25           6635         117.00       509.16
   87.96        3332.50           6638         130.00       565.83
   87.98        3332.75           6642         111.00       483.01
   88.02        3333.00           6646         129.00       561.47
   88.05        3333.25           6649         112.00       487.37
   88.06        3333.50           6653          92.00       400.18
   88.09        3333.75           6657         164.00       714.05
   88.12        3334.00           6661         140.00       609.43
   88.15        3334.25           6664         149.00       648.66
   88.17        3334.50           6668         154.00       670.46
   88.21        3334.75           6672         142.00       618.15
   88.23        3335.00           6676         180.00       783.80
   88.26        3335.25           6679         190.00       827.40
   88.30        3335.50           6683         213.00       927.66
   88.32        3335.75           6687         292.00      1272.07
   88.35        3336.00           6691         773.00      3369.15
   88.38        3336.25           6694        2189.00      9544.33
   88.41        3336.50           6698        6546.00     28560.53
   88.44        3336.75           6702       12443.00     54335.02
   88.46        3337.00           6706       18713.00     81786.57
   88.50        3337.25           6709       23749.00    103870.40
   88.53        3337.50           6713       29959.00    131145.60
   88.55        3337.75           6717       35445.00    155280.60
   88.58        3338.00           6721       41724.00    182950.20
   88.62        3338.25           6724       46476.00    203923.60
   88.65        3338.50           6728       52441.00    230290.70
   88.67        3338.75           6732       58367.00    256529.70
   88.71        3339.00           6736       65219.00    286924.00
   88.74        3339.25           6739       70105.00    308633.90
   88.76        3339.50           6743       76782.00    338350.70
   88.79        3339.75           6747       82834.00    365335.10
   88.83        3340.00           6751       88996.00    392858.20
   88.85        3340.25           6754       93104.00    411234.00
   88.88        3340.50           6758       99312.00    439045.00
   88.91        3340.75           6762      105412.00    466420.80
   88.94        3341.00           6766      109770.00    486008.40
   88.97        3341.25           6769      112425.00    497953.70
   89.00        3341.50           6773      113573.00    503121.70
   89.03        3341.75           6777      112822.00    499740.70
   89.06        3342.00           6781      109039.00    482721.10
   89.08        3342.25           6784      105007.00    464601.70
   89.12        3342.50           6788       98723.00    436404.20
   89.14        3342.75           6792       92883.00    410244.90
   89.17        3343.00           6795       88257.00    389554.80
   89.20        3343.25           6799       82051.00    361841.30
   89.23        3343.50           6803       75297.00    331736.60
   89.26        3343.75           6807       68976.00    303614.70
   89.29        3344.00           6811       63258.00    278219.30
   89.33        3344.25           6814       58758.00    258262.50
   89.35        3344.50           6818       52234.00    229375.00
   89.38        3344.75           6822       45919.00    201463.80
   89.42        3345.00           6826       39852.00    174695.80
   89.44        3345.25           6829       35106.00    153788.10
   89.47        3345.50           6833       28619.00    125256.10
   89.50        3345.75           6837       21818.00     95398.91
   89.53        3346.00           6841       15441.00     67454.96
   89.56        3346.25           6844       10560.00     46100.22
   89.59        3346.50           6848        5057.00     22059.16
   89.62        3346.75           6852        1713.00      7468.22
   89.65        3347.00           6856         583.00      2540.75
   89.68        3347.25           6859         342.00      1490.04
   89.71        3347.50           6863         205.00       892.79
   89.74        3347.75           6867         171.00       744.57
   89.76        3348.00           6871         163.00       709.69
   89.79        3348.25           6874         156.00       679.18
   89.83        3348.50           6878         159.00       692.26
   89.85        3348.75           6882         149.00       648.66
   89.88        3349.00           6886         172.00       748.93
   89.91        3349.25           6889         161.00       700.97
   89.94        3349.50           6893         151.00       657.38
   89.97        3349.75           6897         131.00       570.19
   89.99        3350.00           6901         136.00       591.99
   90.03        3350.25           6904         127.00       552.76
   90.06        3350.50           6908         147.00       639.94
   90.08        3350.75           6912         132.00       574.55
   90.12        3351.00           6916         144.00       626.87
HL scan finished at 01:32:03
end
