************************************************************
  HL Scan of (1) Internal mercury lamp
************************************************************
Integration time is 0.2294 seconds per sample
dh200417El Arenosillo 37.1 6.73 2.76pr1000
************************************************************
Dead Time -------------------------  3.2E-08 
Number of Cycles Used -------------  4 
Starting Wavelength (Angstroms) ---  3331 
Final Wavelength (Angstoms) -------  3351 
Wavelength Increment (Angstroms) --  .25 
Filter Wheel #1 Position ---------- (1) Ground quartz diffuser (ND=2.32)
Filter Wheel #2 Position ---------- 



************************************************************
HL scan start time = 01:23:13
Dark Count =  .4 


Time (GMT)  Wavelength (Ang)  Step Number  Raw Counts  Counts/Second

   84.67        3331.00           6616         129.00       560.60
   85.71        3331.25           6620         104.00       451.62
   85.73        3331.50           6623         107.00       464.70
   85.77        3331.75           6627         102.00       442.90
   85.79        3332.00           6631         106.00       460.34
   85.82        3332.25           6635         102.00       442.90
   85.86        3332.50           6638         110.00       477.78
   85.88        3332.75           6642         146.00       634.71
   85.91        3333.00           6646         126.00       547.52
   85.93        3333.25           6649         101.00       438.54
   85.97        3333.50           6653         121.00       525.73
   86.00        3333.75           6657         120.00       521.37
   86.02        3334.00           6661         109.00       473.42
   86.05        3334.25           6664         108.00       469.06
   86.09        3334.50           6668         128.00       556.24
   86.11        3334.75           6672         124.00       538.81
   86.14        3335.00           6676         137.00       595.48
   86.17        3335.25           6679         155.00       673.95
   86.20        3335.50           6683         178.00       774.21
   86.23        3335.75           6687         357.00      1554.57
   86.26        3336.00           6691        1270.00      5535.42
   86.28        3336.25           6694        2763.00     12047.37
   86.31        3336.50           6698        5813.00     25358.85
   86.34        3336.75           6702        9383.00     40954.25
   86.37        3337.00           6706       13225.00     57755.30
   86.40        3337.25           6709       15901.00     69468.11
   86.43        3337.50           6713       19736.00     86269.22
   86.46        3337.75           6717       23149.00    101236.80
   86.49        3338.00           6721       26782.00    117184.90
   86.52        3338.25           6724       29621.00    129658.90
   86.55        3338.50           6728       33109.00    144998.20
   86.58        3338.75           6732       36831.00    161383.20
   86.61        3339.00           6736       40865.00    179161.10
   86.64        3339.25           6739       43723.00    191768.70
   86.67        3339.50           6743       47894.00    210186.70
   86.70        3339.75           6747       51483.00    226052.10
   86.73        3340.00           6751       54934.00    241322.90
   86.76        3340.25           6754       58350.00    256453.50
   86.79        3340.50           6758       61827.00    271869.40
   86.82        3340.75           6762       65048.00    286163.90
   86.85        3341.00           6766       67305.00    296188.10
   86.87        3341.25           6769       68287.00    300551.60
   86.91        3341.50           6773       68328.00    300733.80
   86.93        3341.75           6777       66788.00    293891.30
   86.96        3342.00           6781       64061.00    281782.30
   87.00        3342.25           6784       61766.00    271598.80
   87.02        3342.50           6788       58175.00    255678.00
   87.05        3342.75           6792       54412.00    239012.00
   87.08        3343.00           6795       51814.00    227516.20
   87.11        3343.25           6799       48179.00    211446.00
   87.14        3343.50           6803       44613.00    195696.90
   87.17        3343.75           6807       40493.00    177520.80
   87.20        3344.00           6811       36756.00    161052.90
   87.23        3344.25           6814       33931.00    148615.30
   87.26        3344.50           6818       30124.00    131870.00
   87.29        3344.75           6822       26063.00    114027.40
   87.32        3345.00           6826       22186.00     97012.12
   87.35        3345.25           6829       19087.00     83424.68
   87.38        3345.50           6833       15364.00     67116.97
   87.41        3345.75           6837       11305.00     49356.89
   87.44        3346.00           6841        7390.00     32245.99
   87.47        3346.25           6844        4793.00     20905.88
   87.50        3346.50           6848        2138.00      9321.00
   87.53        3346.75           6852         737.00      3211.32
   87.56        3347.00           6856         290.00      1262.47
   87.59        3347.25           6859         183.00       796.01
   87.62        3347.50           6863         153.00       665.23
   87.65        3347.75           6867         144.00       625.99
   87.68        3348.00           6871         128.00       556.24
   87.70        3348.25           6874         139.00       604.20
   87.74        3348.50           6878         122.00       530.09
   87.76        3348.75           6882         115.00       499.57
   87.79        3349.00           6886         114.00       495.21
   87.82        3349.25           6889         134.00       582.40
   87.85        3349.50           6893         130.00       564.96
   87.88        3349.75           6897         112.00       486.49
   87.91        3350.00           6901         129.00       560.60
   87.94        3350.25           6904         116.00       503.93
   87.97        3350.50           6908         117.00       508.29
   88.00        3350.75           6912         111.00       482.13
   88.03        3351.00           6916         130.00       564.96
HL scan finished at 01:29:58
end
