************************************************************
  HL Scan of (1) Internal mercury lamp
************************************************************
Integration time is 0.2294 seconds per sample
dh200418El Arenosillo 37.1 6.73 2.68pr1000
************************************************************
Dead Time -------------------------  3.2E-08 
Number of Cycles Used -------------  4 
Starting Wavelength (Angstroms) ---  3331 
Final Wavelength (Angstoms) -------  3351 
Wavelength Increment (Angstroms) --  .25 
Filter Wheel #1 Position ---------- (1) Ground quartz diffuser (ND=2.32)
Filter Wheel #2 Position ---------- 



************************************************************
HL scan start time = 01:22:51
Dark Count =  .3 


Time (GMT)  Wavelength (Ang)  Step Number  Raw Counts  Counts/Second

   84.28        3331.00           6616         160.00       696.18
   85.32        3331.25           6620         172.00       748.49
   85.35        3331.50           6623         154.00       670.02
   85.38        3331.75           6627         147.00       639.51
   85.40        3332.00           6631         154.00       670.02
   85.44        3332.25           6635         153.00       665.66
   85.46        3332.50           6638         145.00       630.79
   85.49        3332.75           6642         151.00       656.94
   85.52        3333.00           6646         159.00       691.82
   85.56        3333.25           6649         140.00       608.99
   85.58        3333.50           6653         145.00       630.79
   85.61        3333.75           6657         146.00       635.15
   85.64        3334.00           6661         158.00       687.46
   85.67        3334.25           6664         171.00       744.13
   85.70        3334.50           6668         176.00       765.93
   85.73        3334.75           6672         204.00       887.99
   85.75        3335.00           6676         226.00       983.90
   85.78        3335.25           6679         247.00      1075.45
   85.81        3335.50           6683         293.00      1275.99
   85.84        3335.75           6687         544.00      2370.28
   85.87        3336.00           6691        2155.00      9395.59
   85.90        3336.25           6694        5338.00     23285.44
   85.92        3336.50           6698       12619.00     55104.50
   85.95        3336.75           6702       21484.00     93933.62
   85.99        3337.00           6706       30869.00    135146.00
   86.01        3337.25           6709       37900.00    166092.70
   86.04        3337.50           6713       46911.00    205844.50
   86.07        3337.75           6717       55656.00    244520.00
   86.10        3338.00           6721       65065.00    286239.80
   86.13        3338.25           6724       71851.00    316398.70
   86.16        3338.50           6728       80809.00    356300.50
   86.19        3338.75           6732       89330.00    394351.00
   86.22        3339.00           6736       99272.00    438865.20
   86.25        3339.25           6739      106617.00    471833.90
   86.28        3339.50           6743      115639.00    512426.10
   86.31        3339.75           6747      125457.00    556720.80
   86.34        3340.00           6751      134651.00    598315.50
   86.37        3340.25           6754      141623.00    629932.40
   86.40        3340.50           6758      150212.00    668971.10
   86.43        3340.75           6762      159040.00    709199.10
   86.46        3341.00           6766      164684.00    734973.10
   86.49        3341.25           6769      167168.00    746330.30
   86.52        3341.50           6773      167979.00    750040.10
   86.55        3341.75           6777      166120.00    741537.60
   86.58        3342.00           6781      160411.00    715456.00
   86.61        3342.25           6784      154373.00    687919.10
   86.63        3342.50           6788      145385.00    647019.20
   86.67        3342.75           6792      136431.00    606381.40
   86.69        3343.00           6795      129749.00    576124.50
   86.72        3343.25           6799      120921.00    536240.50
   86.75        3343.50           6803      111735.00    494848.00
   86.79        3343.75           6807      103187.00    456429.30
   86.81        3344.00           6811       93808.00    414385.00
   86.84        3344.25           6814       87091.00    384343.80
   86.87        3344.50           6818       78111.00    344272.00
   86.90        3344.75           6822       67919.00    298916.70
   86.93        3345.00           6826       58054.00    255142.20
   86.96        3345.25           6829       50595.00    222125.60
   86.98        3345.50           6833       41007.00    179787.70
   87.02        3345.75           6837       31716.00    138870.80
   87.05        3346.00           6841       21807.00     95350.21
   87.07        3346.25           6844       15188.00     66346.91
   87.10        3346.50           6848        7524.00     32831.78
   87.13        3346.75           6852        2639.00     11506.85
   87.15        3347.00           6856         822.00      3582.36
   87.18        3347.25           6859         410.00      1786.07
   87.21        3347.50           6863         296.00      1289.07
   87.24        3347.75           6867         250.00      1088.53
   87.27        3348.00           6871         217.00       944.67
   87.30        3348.25           6874         191.00       831.32
   87.33        3348.50           6878         192.00       835.68
   87.36        3348.75           6882         181.00       787.73
   87.38        3349.00           6886         171.00       744.13
   87.41        3349.25           6889         177.00       770.29
   87.45        3349.50           6893         171.00       744.13
   87.47        3349.75           6897         172.00       748.49
   87.50        3350.00           6901         173.00       752.85
   87.53        3350.25           6904         170.00       739.77
   87.56        3350.50           6908         184.00       800.81
   87.59        3350.75           6912         156.00       678.74
   87.62        3351.00           6916         167.00       726.70
HL scan finished at 01:29:33
end
