************************************************************
  HL Scan of (1) Internal mercury lamp
************************************************************
Integration time is 0.2294 seconds per sample
dh270418El Arenosillo 37.1 6.73 2.88pr1000
************************************************************
Dead Time -------------------------  3.2E-08 
Number of Cycles Used -------------  4 
Starting Wavelength (Angstroms) ---  3331 
Final Wavelength (Angstoms) -------  3351 
Wavelength Increment (Angstroms) --  .25 
Filter Wheel #1 Position ---------- (1) Ground quartz diffuser (ND=2.32)
Filter Wheel #2 Position ---------- 



************************************************************
HL scan start time = 01:18:51
Dark Count =  .4 


Time (GMT)  Wavelength (Ang)  Step Number  Raw Counts  Counts/Second

   80.28        3331.00           6616         144.00       625.99
   81.32        3331.25           6620         163.00       708.82
   81.35        3331.50           6623         148.00       643.43
   81.38        3331.75           6627         145.00       630.35
   81.41        3332.00           6631         159.00       691.38
   81.44        3332.25           6635         155.00       673.95
   81.47        3332.50           6638         145.00       630.35
   81.50        3332.75           6642         156.00       678.31
   81.53        3333.00           6646         141.00       612.92
   81.56        3333.25           6649         148.00       643.43
   81.59        3333.50           6653         152.00       660.87
   81.62        3333.75           6657         155.00       673.95
   81.65        3334.00           6661         171.00       743.70
   81.68        3334.25           6664         165.00       717.54
   81.71        3334.50           6668         178.00       774.21
   81.74        3334.75           6672         189.00       822.17
   81.76        3335.00           6676         239.00      1040.14
   81.80        3335.25           6679         250.00      1088.09
   81.83        3335.50           6683         281.00      1223.24
   81.85        3335.75           6687         418.00      1820.51
   81.88        3336.00           6691        1331.00      5801.43
   81.92        3336.25           6694        3605.00     15721.07
   81.94        3336.50           6698        9545.00     41662.31
   81.97        3336.75           6702       18218.00     79616.71
   82.00        3337.00           6706       27307.00    119490.90
   82.03        3337.25           6709       34044.00    149112.60
   82.06        3337.50           6713       43923.00    192651.30
   82.09        3337.75           6717       53004.00    232780.70
   82.12        3338.00           6721       62890.00    276585.40
   82.15        3338.25           6724       70310.00    309544.50
   82.18        3338.50           6728       80075.00    353026.70
   82.21        3338.75           6732       90464.00    399421.50
   82.24        3339.00           6736      100081.00    442492.70
   82.28        3339.25           6739      107347.00    475114.00
   82.30        3339.50           6743      117170.00    519324.60
   82.33        3339.75           6747      126748.00    562554.30
   82.36        3340.00           6751      136306.00    605814.30
   82.39        3340.25           6754      143783.00    639740.30
   82.42        3340.50           6758      153487.00    683882.10
   82.45        3340.75           6762      162360.00    724354.60
   82.48        3341.00           6766      169021.00    754807.30
   82.51        3341.25           6769      171970.00    768308.80
   82.54        3341.50           6773      174004.00    777628.00
   82.57        3341.75           6777      172186.00    769298.20
   82.59        3342.00           6781      167849.00    749444.80
   82.63        3342.25           6784      161962.00    722537.00
   82.66        3342.50           6788      152762.00    680579.90
   82.69        3342.75           6792      142798.00    635266.60
   82.71        3343.00           6795      135758.00    603330.80
   82.75        3343.25           6799      125368.00    556318.30
   82.77        3343.50           6803      114972.00    509421.00
   82.80        3343.75           6807      104904.00    464138.20
   82.83        3344.00           6811       95297.00    421051.80
   82.87        3344.25           6814       88093.00    388820.90
   82.89        3344.50           6818       78449.00    345777.90
   82.92        3344.75           6822       69757.00    307085.70
   82.95        3345.00           6826       60487.00    265926.40
   82.99        3345.25           6829       53349.00    234307.40
   83.01        3345.50           6833       43143.00    189209.30
   83.04        3345.75           6837       33097.00    144945.40
   83.07        3346.00           6841       22572.00     98705.34
   83.10        3346.25           6844       14887.00     65028.82
   83.13        3346.50           6848        7306.00     31879.06
   83.16        3346.75           6852        2599.00     11331.92
   83.19        3347.00           6856         755.00      3289.80
   83.23        3347.25           6859         446.00      1942.58
   83.25        3347.50           6863         302.00      1314.79
   83.28        3347.75           6867         248.00      1079.37
   83.31        3348.00           6871         208.00       905.00
   83.34        3348.25           6874         199.00       865.76
   83.37        3348.50           6878         177.00       769.85
   83.40        3348.75           6882         177.00       769.85
   83.43        3349.00           6886         174.00       756.78
   83.46        3349.25           6889         176.00       765.49
   83.49        3349.50           6893         170.00       739.34
   83.52        3349.75           6897         166.00       721.90
   83.55        3350.00           6901         178.00       774.21
   83.58        3350.25           6904         159.00       691.38
   83.61        3350.50           6908         165.00       717.54
   83.64        3350.75           6912         160.00       695.74
   83.66        3351.00           6916         173.00       752.42
HL scan finished at 01:25:36
end
