************************************************************
  HL Scan of (1) Internal mercury lamp
************************************************************
Integration time is 0.2294 seconds per sample
dh270417El Arenosillo 37.1 6.73 2.8pr1000
************************************************************
Dead Time -------------------------  3.2E-08 
Number of Cycles Used -------------  4 
Starting Wavelength (Angstroms) ---  3331 
Final Wavelength (Angstoms) -------  3351 
Wavelength Increment (Angstroms) --  .25 
Filter Wheel #1 Position ---------- (1) Ground quartz diffuser (ND=2.32)
Filter Wheel #2 Position ---------- 



************************************************************
HL scan start time = 01:22:09
Dark Count =  .4 


Time (GMT)  Wavelength (Ang)  Step Number  Raw Counts  Counts/Second

   83.60        3331.00           6616         105.00       455.98
   84.63        3331.25           6620         135.00       586.76
   84.66        3331.50           6623         119.00       517.01
   84.69        3331.75           6627         124.00       538.81
   84.72        3332.00           6631         120.00       521.37
   84.75        3332.25           6635         121.00       525.73
   84.78        3332.50           6638         103.00       447.26
   84.81        3332.75           6642         102.00       442.90
   84.84        3333.00           6646         125.00       543.17
   84.87        3333.25           6649         105.00       455.98
   84.90        3333.50           6653          95.00       412.39
   84.93        3333.75           6657         130.00       564.96
   84.96        3334.00           6661         101.00       438.54
   84.99        3334.25           6664         107.00       464.70
   85.02        3334.50           6668         129.00       560.60
   85.05        3334.75           6672         136.00       591.12
   85.08        3335.00           6676         168.00       730.62
   85.11        3335.25           6679         163.00       708.82
   85.14        3335.50           6683         166.00       721.90
   85.17        3335.75           6687         269.00      1170.92
   85.19        3336.00           6691         901.00      3926.39
   85.22        3336.25           6694        2201.00      9595.80
   85.25        3336.50           6698        5060.00     22071.38
   85.27        3336.75           6702        8295.00     36199.71
   85.31        3337.00           6706       12025.00     52505.76
   85.34        3337.25           6709       14324.00     62564.54
   85.36        3337.50           6713       17916.00     78293.56
   85.39        3337.75           6717       21314.00     93187.68
   85.43        3338.00           6721       24827.00    108600.80
   85.45        3338.25           6724       27570.00    120646.20
   85.48        3338.50           6728       31486.00    137858.80
   85.52        3338.75           6732       35183.00    154126.20
   85.54        3339.00           6736       38978.00    170842.50
   85.57        3339.25           6739       41619.00    182486.30
   85.60        3339.50           6743       45871.00    201250.90
   85.64        3339.75           6747       49416.00    216912.80
   85.66        3340.00           6751       53229.00    233776.30
   85.69        3340.25           6754       56159.00    246747.10
   85.72        3340.50           6758       59753.00    262672.10
   85.75        3340.75           6762       62651.00    275525.00
   85.78        3341.00           6766       64866.00    285355.80
   85.80        3341.25           6769       65945.00    290147.00
   85.84        3341.50           6773       66008.00    290426.90
   85.87        3341.75           6777       64934.00    285657.80
   85.89        3342.00           6781       62669.00    275604.80
   85.92        3342.25           6784       59858.00    263137.60
   85.96        3342.50           6788       56769.00    249448.90
   85.98        3342.75           6792       53262.00    233922.40
   86.01        3343.00           6795       50434.00    221413.30
   86.05        3343.25           6799       46808.00    205389.10
   86.07        3343.50           6803       42714.00    187316.50
   86.10        3343.75           6807       38791.00    170018.40
   86.13        3344.00           6811       34964.00    153162.10
   86.16        3344.25           6814       32222.00    141096.00
   86.19        3344.50           6818       28443.00    124481.80
   86.22        3344.75           6822       24850.00    108701.80
   86.26        3345.00           6826       21245.00     92885.09
   86.28        3345.25           6829       18460.00     80677.06
   86.31        3345.50           6833       14733.00     64354.72
   86.34        3345.75           6837       11121.00     48552.27
   86.37        3346.00           6841        7325.00     31962.06
   86.40        3346.25           6844        4765.00     20783.65
   86.42        3346.50           6848        2114.00      9216.32
   86.46        3346.75           6852         695.00      3028.19
   86.49        3347.00           6856         279.00      1214.52
   86.51        3347.25           6859         198.00       861.40
   86.54        3347.50           6863         157.00       682.67
   86.57        3347.75           6867         151.00       656.51
   86.60        3348.00           6871         165.00       717.54
   86.63        3348.25           6874         126.00       547.52
   86.66        3348.50           6878         174.00       756.78
   86.69        3348.75           6882         151.00       656.51
   86.72        3349.00           6886         146.00       634.71
   86.75        3349.25           6889         130.00       564.96
   86.78        3349.50           6893         104.00       451.62
   86.81        3349.75           6897         109.00       473.42
   86.83        3350.00           6901         132.00       573.68
   86.87        3350.25           6904         147.00       639.07
   86.90        3350.50           6908         112.00       486.49
   86.92        3350.75           6912         125.00       543.17
   86.95        3351.00           6916         108.00       469.06
HL scan finished at 01:28:53
end
