************************************************************
  HL Scan of (1) Internal mercury lamp
************************************************************
Integration time is 0.2294 seconds per sample
dh270419El Arenosillo 37.1 6.73 2.62pr1000
************************************************************
Dead Time -------------------------  3.2E-08 
Number of Cycles Used -------------  4 
Starting Wavelength (Angstroms) ---  3331 
Final Wavelength (Angstoms) -------  3351 
Wavelength Increment (Angstroms) --  .25 
Filter Wheel #1 Position ---------- (1) Ground quartz diffuser (ND=2.32)
Filter Wheel #2 Position ---------- 



************************************************************
HL scan start time = 01:21:46
Dark Count =  .2 


Time (GMT)  Wavelength (Ang)  Step Number  Raw Counts  Counts/Second

   83.20        3331.00           6616         126.00       548.40
   84.24        3331.25           6620         120.00       522.24
   84.26        3331.50           6623         118.00       513.52
   84.29        3331.75           6627         122.00       530.96
   84.32        3332.00           6631         112.00       487.37
   84.35        3332.25           6635         128.00       557.12
   84.38        3332.50           6638         143.00       622.51
   84.40        3332.75           6642         129.00       561.47
   84.44        3333.00           6646         110.00       478.65
   84.47        3333.25           6649         167.00       727.13
   84.49        3333.50           6653         120.00       522.24
   84.52        3333.75           6657         118.00       513.52
   84.55        3334.00           6661         130.00       565.83
   84.58        3334.25           6664         152.00       661.74
   84.61        3334.50           6668         187.00       814.32
   84.63        3334.75           6672         155.00       674.82
   84.67        3335.00           6676         161.00       700.97
   84.70        3335.25           6679         180.00       783.80
   84.72        3335.50           6683         223.00       971.26
   84.75        3335.75           6687         273.00      1189.23
   84.78        3336.00           6691         692.00      3015.98
   84.81        3336.25           6694        1912.00      8336.14
   84.84        3336.50           6698        6016.00     26246.10
   84.87        3336.75           6702       11877.00     51859.31
   84.90        3337.00           6706       18181.00     79455.48
   84.93        3337.25           6709       22843.00     99895.10
   84.96        3337.50           6713       29159.00    127629.20
   84.99        3337.75           6717       34767.00    152295.80
   85.02        3338.00           6721       41334.00    181230.20
   85.05        3338.25           6724       46036.00    201980.40
   85.08        3338.50           6728       52644.00    231188.80
   85.11        3338.75           6732       59146.00    259982.20
   85.14        3339.00           6736       65840.00    289681.60
   85.17        3339.25           6739       71301.00    313952.60
   85.20        3339.50           6743       77792.00    342850.80
   85.23        3339.75           6747       84529.00    372901.10
   85.26        3340.00           6751       90776.00    400817.80
   85.28        3340.25           6754       95584.00    422338.20
   85.32        3340.50           6758      101748.00    449971.60
   85.34        3340.75           6762      107919.00    477685.80
   85.37        3341.00           6766      112665.00    499034.00
   85.40        3341.25           6769      115425.00    511462.40
   85.43        3341.50           6773      116809.00    517698.40
   85.46        3341.75           6777      115941.00    513787.20
   85.48        3342.00           6781      112959.00    500357.40
   85.51        3342.25           6784      109255.00    483692.30
   85.54        3342.50           6788      103501.00    457839.30
   85.57        3342.75           6792       97585.00    431303.30
   85.60        3343.00           6795       92461.00    408356.40
   85.63        3343.25           6799       85597.00    377670.20
   85.66        3343.50           6803       79202.00    349135.30
   85.69        3343.75           6807       72177.00    317849.50
   85.72        3344.00           6811       65298.00    287274.80
   85.75        3344.25           6814       60733.00    267018.10
   85.78        3344.50           6818       54534.00    239553.00
   85.81        3344.75           6822       47876.00    210108.00
   85.84        3345.00           6826       41314.00    181142.00
   85.87        3345.25           6829       36194.00    158578.60
   85.90        3345.50           6833       29591.00    129527.90
   85.93        3345.75           6837       22962.00    100417.20
   85.96        3346.00           6841       15945.00     69661.66
   85.98        3346.25           6844       11350.00     49554.55
   86.01        3346.50           6848        5642.00     24613.10
   86.04        3346.75           6852        2121.00      9247.72
   86.07        3347.00           6856         683.00      2976.74
   86.10        3347.25           6859         356.00      1551.08
   86.13        3347.50           6863         237.00      1032.29
   86.15        3347.75           6867         188.00       818.68
   86.19        3348.00           6871         173.00       753.29
   86.22        3348.25           6874         151.00       657.38
   86.24        3348.50           6878         166.00       722.77
   86.27        3348.75           6882         142.00       618.15
   86.30        3349.00           6886         145.00       631.22
   86.33        3349.25           6889         152.00       661.74
   86.36        3349.50           6893         147.00       639.94
   86.39        3349.75           6897         138.00       600.71
   86.42        3350.00           6901         149.00       648.66
   86.45        3350.25           6904         165.00       718.41
   86.47        3350.50           6908         158.00       687.90
   86.51        3350.75           6912         130.00       565.83
   86.54        3351.00           6916         134.00       583.27
HL scan finished at 01:28:28
end
