************************************************************
  HL Scan of (1) Internal mercury lamp
************************************************************
Integration time is 0.2294 seconds per sample
dh040518El Arenosillo 37.1 6.73 2.82pr1000
************************************************************
Dead Time -------------------------  3.2E-08 
Number of Cycles Used -------------  4 
Starting Wavelength (Angstroms) ---  3331 
Final Wavelength (Angstoms) -------  3351 
Wavelength Increment (Angstroms) --  .25 
Filter Wheel #1 Position ---------- (1) Ground quartz diffuser (ND=2.32)
Filter Wheel #2 Position ---------- 



************************************************************
HL scan start time = 01:21:11
Dark Count =  .6 


Time (GMT)  Wavelength (Ang)  Step Number  Raw Counts  Counts/Second

   82.62        3331.00           6616         154.00       668.72
   83.66        3331.25           6620         151.00       655.64
   83.68        3331.50           6623         141.00       612.04
   83.71        3331.75           6627         156.00       677.43
   83.74        3332.00           6631         148.00       642.56
   83.77        3332.25           6635         157.00       681.79
   83.80        3332.50           6638         153.00       664.36
   83.83        3332.75           6642         146.00       633.84
   83.85        3333.00           6646         163.00       707.95
   83.89        3333.25           6649         146.00       633.84
   83.92        3333.50           6653         154.00       668.72
   83.94        3333.75           6657         152.00       660.00
   83.97        3334.00           6661         161.00       699.23
   84.01        3334.25           6664         171.00       742.82
   84.04        3334.50           6668         181.00       786.42
   84.06        3334.75           6672         210.00       912.84
   84.09        3335.00           6676         265.00      1152.61
   84.13        3335.25           6679         276.00      1200.57
   84.15        3335.50           6683         336.00      1462.14
   84.18        3335.75           6687         721.00      3140.68
   84.21        3336.00           6691        2881.00     12561.28
   84.24        3336.25           6694        6624.00     28899.43
   84.27        3336.50           6698       15180.00     66310.57
   84.30        3336.75           6702       24605.00    107625.50
   84.33        3337.00           6706       34029.00    149045.70
   84.36        3337.25           6709       41031.00    179892.20
   84.39        3337.50           6713       49913.00    219109.00
   84.42        3337.75           6717       59032.00    259475.10
   84.45        3338.00           6721       68358.00    300866.20
   84.48        3338.25           6724       74963.00    330247.60
   84.51        3338.50           6728       84481.00    372685.00
   84.54        3338.75           6732       93512.00    413058.50
   84.57        3339.00           6736      103638.00    458452.60
   84.60        3339.25           6739      111054.00    491782.40
   84.63        3339.50           6743      120682.00    535160.80
   84.66        3339.75           6747      130455.00    579317.10
   84.68        3340.00           6751      139401.00    619847.60
   84.72        3340.25           6754      146363.00    651463.00
   84.75        3340.50           6758      155536.00    693218.00
   84.77        3340.75           6762      162616.00    725523.00
   84.80        3341.00           6766      168223.00    751155.00
   84.84        3341.25           6769      170936.00    763572.60
   84.86        3341.50           6773      170613.00    762093.60
   84.89        3341.75           6777      167460.00    747664.50
   84.92        3342.00           6781      160642.00    716509.10
   84.95        3342.25           6784      154357.00    687844.90
   84.98        3342.50           6788      145735.00    648608.60
   85.01        3342.75           6792      136644.00    607345.60
   85.04        3343.00           6795      129988.00    577204.30
   85.07        3343.25           6799      120891.00    536103.80
   85.10        3343.50           6803      111346.00    493096.20
   85.13        3343.75           6807      101787.00    450144.80
   85.15        3344.00           6811       91915.00    405911.50
   85.19        3344.25           6814       84686.00    373600.30
   85.21        3344.50           6818       75528.00    332763.50
   85.24        3344.75           6822       65523.00    288272.10
   85.27        3345.00           6826       56385.00    247747.10
   85.31        3345.25           6829       48675.00    213636.90
   85.33        3345.50           6833       39012.00    170991.50
   85.36        3345.75           6837       29241.00    127987.80
   85.40        3346.00           6841       19617.00     85746.72
   85.43        3346.25           6844       13222.00     57741.30
   85.46        3346.50           6848        6188.00     26995.41
   85.48        3346.75           6852        2046.00      8918.85
   85.51        3347.00           6856         677.00      2948.84
   85.55        3347.25           6859         397.00      1728.08
   85.57        3347.50           6863         288.00      1252.88
   85.60        3347.75           6867         239.00      1039.27
   85.63        3348.00           6871         239.00      1039.27
   85.67        3348.25           6874         205.00       891.05
   85.69        3348.50           6878         187.00       812.58
   85.72        3348.75           6882         176.00       764.62
   85.75        3349.00           6886         163.00       707.95
   85.79        3349.25           6889         158.00       686.15
   85.81        3349.50           6893         170.00       738.47
   85.84        3349.75           6897         169.00       734.11
   85.87        3350.00           6901         167.00       725.39
   85.90        3350.25           6904         174.00       755.90
   85.93        3350.50           6908         160.00       694.87
   85.96        3350.75           6912         169.00       734.11
   85.99        3351.00           6916         176.00       764.62
HL scan finished at 01:27:56
end
