************************************************************
  HL Scan of (1) Internal mercury lamp
************************************************************
Integration time is 0.2294 seconds per sample
dh040517El Arenosillo 37.1 6.73 2.68pr1000
************************************************************
Dead Time -------------------------  3.2E-08 
Number of Cycles Used -------------  4 
Starting Wavelength (Angstroms) ---  3331 
Final Wavelength (Angstoms) -------  3351 
Wavelength Increment (Angstroms) --  .25 
Filter Wheel #1 Position ---------- (1) Ground quartz diffuser (ND=2.32)
Filter Wheel #2 Position ---------- 



************************************************************
HL scan start time = 01:21:31
Dark Count =  .3 


Time (GMT)  Wavelength (Ang)  Step Number  Raw Counts  Counts/Second

   82.98        3331.00           6616          99.00       430.26
   84.01        3331.25           6620         126.00       547.96
   84.03        3331.50           6623         104.00       452.06
   84.07        3331.75           6627         127.00       552.32
   84.10        3332.00           6631         115.00       500.01
   84.13        3332.25           6635         120.00       521.80
   84.16        3332.50           6638         106.00       460.77
   84.19        3332.75           6642         106.00       460.77
   84.22        3333.00           6646         100.00       434.62
   84.24        3333.25           6649         110.00       478.21
   84.28        3333.50           6653         124.00       539.24
   84.31        3333.75           6657          98.00       425.90
   84.34        3334.00           6661         102.00       443.34
   84.37        3334.25           6664         129.00       561.04
   84.40        3334.50           6668         138.00       600.27
   84.42        3334.75           6672         140.00       608.99
   84.45        3335.00           6676         126.00       547.96
   84.48        3335.25           6679         145.00       630.79
   84.51        3335.50           6683         155.00       674.38
   84.54        3335.75           6687         189.00       822.60
   84.57        3336.00           6691         462.00      2012.77
   84.60        3336.25           6694        1256.00      5474.80
   84.63        3336.50           6698        3494.00     15237.16
   84.66        3336.75           6702        6513.00     28415.98
   84.69        3337.00           6706        9940.00     43389.32
   84.72        3337.25           6709       12488.00     54531.44
   84.75        3337.50           6713       15941.00     69643.71
   84.78        3337.75           6717       19349.00     84573.38
   84.81        3338.00           6721       22943.00    100333.40
   84.84        3338.25           6724       25527.00    111674.30
   84.87        3338.50           6728       28944.00    126683.80
   84.90        3338.75           6732       32749.00    143414.70
   84.93        3339.00           6736       36509.00    159965.40
   84.96        3339.25           6739       39033.00    171085.40
   84.99        3339.50           6743       43142.00    189205.30
   85.02        3339.75           6747       46800.00    205354.20
   85.05        3340.00           6751       50344.00    221015.80
   85.07        3340.25           6754       53121.00    233298.90
   85.11        3340.50           6758       56795.00    249564.50
   85.14        3340.75           6762       60340.00    265275.00
   85.16        3341.00           6766       63236.00    278121.20
   85.19        3341.25           6769       64306.00    282870.20
   85.22        3341.50           6773       65350.00    287505.30
   85.25        3341.75           6777       64847.00    285271.90
   85.28        3342.00           6781       62928.00    276754.50
   85.31        3342.25           6784       61159.00    268906.90
   85.34        3342.50           6788       57570.00    252997.70
   85.37        3342.75           6792       54052.00    237419.00
   85.40        3343.00           6795       51188.00    224747.90
   85.43        3343.25           6799       47593.00    208857.20
   85.46        3343.50           6803       43541.00    190966.00
   85.49        3343.75           6807       39994.00    175321.30
   85.52        3344.00           6811       36171.00    158476.90
   85.55        3344.25           6814       33546.00    146921.50
   85.58        3344.50           6818       29733.00    130151.70
   85.61        3344.75           6822       26335.00    115222.20
   85.64        3345.00           6826       22635.00     98982.15
   85.67        3345.25           6829       19989.00     87378.68
   85.70        3345.50           6833       16272.00     71093.12
   85.73        3345.75           6837       12376.00     54041.50
   85.76        3346.00           6841        8664.00     37812.51
   85.79        3346.25           6844        6085.00     26546.95
   85.82        3346.50           6848        3029.00     13208.28
   85.85        3346.75           6852        1160.00      5056.18
   85.88        3347.00           6856         372.00      1620.40
   85.90        3347.25           6859         226.00       983.90
   85.94        3347.50           6863         166.00       722.34
   85.96        3347.75           6867         141.00       613.35
   85.99        3348.00           6871         156.00       678.74
   86.03        3348.25           6874         128.00       556.68
   86.06        3348.50           6878         110.00       478.21
   86.08        3348.75           6882         137.00       595.91
   86.11        3349.00           6886         146.00       635.15
   86.15        3349.25           6889         110.00       478.21
   86.17        3349.50           6893         127.00       552.32
   86.20        3349.75           6897         110.00       478.21
   86.23        3350.00           6901         129.00       561.04
   86.26        3350.25           6904         126.00       547.96
   86.29        3350.50           6908         112.00       486.93
   86.31        3350.75           6912         136.00       591.55
   86.35        3351.00           6916         144.00       626.43
HL scan finished at 01:28:17
end
