************************************************************
  HL Scan of (1) Internal mercury lamp
************************************************************
Integration time is 0.2294 seconds per sample
dh040519El Arenosillo 37.1 6.73 2.94pr1000
************************************************************
Dead Time -------------------------  3.2E-08 
Number of Cycles Used -------------  4 
Starting Wavelength (Angstroms) ---  3331 
Final Wavelength (Angstoms) -------  3351 
Wavelength Increment (Angstroms) --  .25 
Filter Wheel #1 Position ---------- (1) Ground quartz diffuser (ND=2.32)
Filter Wheel #2 Position ---------- 



************************************************************
HL scan start time = 01:21:17
Dark Count =  .6 


Time (GMT)  Wavelength (Ang)  Step Number  Raw Counts  Counts/Second

   82.73        3331.00           6616         120.00       520.50
   83.77        3331.25           6620         100.00       433.31
   83.80        3331.50           6623         114.00       494.34
   83.83        3331.75           6627         147.00       638.20
   83.85        3332.00           6631         104.00       450.75
   83.88        3332.25           6635         107.00       463.83
   83.91        3332.50           6638         132.00       572.81
   83.93        3332.75           6642         115.00       498.70
   83.97        3333.00           6646         134.00       581.53
   83.99        3333.25           6649         118.00       511.78
   84.02        3333.50           6653         137.00       594.61
   84.05        3333.75           6657         117.00       507.42
   84.09        3334.00           6661         141.00       612.04
   84.11        3334.25           6664         153.00       664.36
   84.14        3334.50           6668         151.00       655.64
   84.17        3334.75           6672         161.00       699.23
   84.20        3335.00           6676         181.00       786.42
   84.23        3335.25           6679         208.00       904.12
   84.26        3335.50           6683         232.00      1008.75
   84.29        3335.75           6687         432.00      1880.67
   84.32        3336.00           6691        1570.00      6842.82
   84.35        3336.25           6694        3903.00     17020.60
   84.38        3336.50           6698        9487.00     41407.93
   84.41        3336.75           6702       16232.00     70916.65
   84.43        3337.00           6706       23051.00    100805.90
   84.46        3337.25           6709       28204.00    123430.80
   84.49        3337.50           6713       35012.00    153372.50
   84.52        3337.75           6717       41779.00    183191.10
   84.55        3338.00           6721       48729.00    213875.50
   84.59        3338.25           6724       53711.00    235908.50
   84.61        3338.50           6728       60552.00    266213.70
   84.64        3338.75           6732       67211.00    295769.60
   84.67        3339.00           6736       74536.00    328346.50
   84.71        3339.25           6739       79431.00    350154.40
   84.73        3339.50           6743       86325.00    380920.20
   84.76        3339.75           6747       93430.00    412691.50
   84.79        3340.00           6751      100861.00    445990.30
   84.82        3340.25           6754      106227.00    470080.20
   84.85        3340.50           6758      112903.00    500103.50
   84.88        3340.75           6762      119678.00    530631.70
   84.92        3341.00           6766      123887.00    549627.70
   84.94        3341.25           6769      125915.00    558788.90
   84.97        3341.50           6773      126108.00    559661.00
   85.00        3341.75           6777      124639.00    553024.10
   85.03        3342.00           6781      120384.00    533816.30
   85.06        3342.25           6784      115718.00    512780.60
   85.08        3342.50           6788      108852.00    481878.50
   85.12        3342.75           6792      101954.00    450894.10
   85.15        3343.00           6795       96672.00    427210.30
   85.17        3343.25           6799       89599.00    395552.40
   85.20        3343.50           6803       82749.00    364954.00
   85.24        3343.75           6807       75700.00    333529.50
   85.26        3344.00           6811       69044.00    303915.20
   85.29        3344.25           6814       64270.00    282709.10
   85.33        3344.50           6818       57425.00    252354.00
   85.36        3344.75           6822       49700.00    218167.30
   85.38        3345.00           6826       42689.00    187205.30
   85.42        3345.25           6829       36891.00    161646.50
   85.45        3345.50           6833       29784.00    130374.50
   85.48        3345.75           6837       22308.00     97546.39
   85.50        3346.00           6841       13063.00     57045.63
   85.52        3346.25           6844        9952.00     43440.47
   85.55        3346.50           6848        4612.00     20114.95
   85.58        3346.75           6852        1611.00      7021.63
   85.61        3347.00           6856         520.00      2264.33
   85.64        3347.25           6859         307.00      1335.72
   85.67        3347.50           6863         205.00       891.05
   85.70        3347.75           6867         178.00       773.34
   85.73        3348.00           6871         154.00       668.72
   85.76        3348.25           6874         173.00       751.54
   85.79        3348.50           6878         156.00       677.43
   85.82        3348.75           6882         146.00       633.84
   85.85        3349.00           6886         128.00       555.37
   85.87        3349.25           6889         135.00       585.89
   85.90        3349.50           6893         150.00       651.28
   85.94        3349.75           6897         130.00       564.09
   85.96        3350.00           6901         124.00       537.93
   85.99        3350.25           6904         120.00       520.50
   86.02        3350.50           6908         129.00       559.73
   86.05        3350.75           6912         144.00       625.12
   86.08        3351.00           6916         123.00       533.57
HL scan finished at 01:28:01
end
