************************************************************
  HL Scan of (1) Internal mercury lamp
************************************************************
Integration time is 0.2294 seconds per sample
dh180518El Arenosillo 37.1 6.73 2.82pr1000
************************************************************
Dead Time -------------------------  3.2E-08 
Number of Cycles Used -------------  4 
Starting Wavelength (Angstroms) ---  3331 
Final Wavelength (Angstoms) -------  3351 
Wavelength Increment (Angstroms) --  .25 
Filter Wheel #1 Position ---------- (1) Ground quartz diffuser (ND=2.32)
Filter Wheel #2 Position ---------- 



************************************************************
HL scan start time = 01:21:08
Dark Count =  .6 


Time (GMT)  Wavelength (Ang)  Step Number  Raw Counts  Counts/Second

   82.57        3331.00           6616         145.00       629.48
   83.61        3331.25           6620         154.00       668.72
   83.63        3331.50           6623         157.00       681.79
   83.66        3331.75           6627         137.00       594.61
   83.69        3332.00           6631         148.00       642.56
   83.72        3332.25           6635         143.00       620.76
   83.75        3332.50           6638         131.00       568.45
   83.78        3332.75           6642         149.00       646.92
   83.81        3333.00           6646         166.00       721.03
   83.84        3333.25           6649         141.00       612.04
   83.87        3333.50           6653         152.00       660.00
   83.90        3333.75           6657         156.00       677.43
   83.93        3334.00           6661         156.00       677.43
   83.96        3334.25           6664         163.00       707.95
   83.99        3334.50           6668         187.00       812.58
   84.01        3334.75           6672         210.00       912.84
   84.05        3335.00           6676         213.00       925.92
   84.07        3335.25           6679         264.00      1148.25
   84.10        3335.50           6683         279.00      1213.65
   84.13        3335.75           6687         498.00      2168.42
   84.16        3336.00           6691        1795.00      7824.10
   84.19        3336.25           6694        4574.00     19949.09
   84.21        3336.50           6698       11549.00     50423.06
   84.24        3336.75           6702       20359.00     88999.41
   84.28        3337.00           6706       29058.00    127183.50
   84.30        3337.25           6709       36200.00    158603.30
   84.33        3337.50           6713       45417.00    199245.40
   84.36        3337.75           6717       53861.00    236572.30
   84.39        3338.00           6721       63602.00    279744.10
   84.42        3338.25           6724       70545.00    310588.60
   84.44        3338.50           6728       80012.00    352744.90
   84.48        3338.75           6732       89985.00    397278.40
   84.51        3339.00           6736       99955.00    441926.70
   84.54        3339.25           6739      107174.00    474335.60
   84.56        3339.50           6743      116974.00    518440.30
   84.60        3339.75           6747      125992.00    559136.80
   84.63        3340.00           6751      135177.00    600697.30
   84.65        3340.25           6754      142314.00    633068.10
   84.68        3340.50           6758      151752.00    675979.80
   84.72        3340.75           6762      159978.00    713478.30
   84.74        3341.00           6766      166227.00    742025.60
   84.77        3341.25           6769      169520.00    757090.30
   84.80        3341.50           6773      170829.00    763082.70
   84.83        3341.75           6777      168886.00    754188.70
   84.86        3342.00           6781      163789.00    730881.80
   84.88        3342.25           6784      157510.00    702218.30
   84.92        3342.50           6788      148098.00    659352.10
   84.95        3342.75           6792      139054.00    618273.50
   84.97        3343.00           6795      131494.00    584019.00
   85.00        3343.25           6799      121509.00    538892.50
   85.03        3343.50           6803      111105.00    492011.90
   85.06        3343.75           6807      101126.00    447179.10
   85.09        3344.00           6811       91814.00    405459.50
   85.13        3344.25           6814       85063.00    375283.70
   85.15        3344.50           6818       76261.00    336028.10
   85.18        3344.75           6822       66644.00    293250.80
   85.21        3345.00           6826       57283.00    251724.90
   85.25        3345.25           6829       49802.00    218618.20
   85.28        3345.50           6833       39755.00    174266.40
   85.30        3345.75           6837       29850.00    130664.60
   85.33        3346.00           6841       19737.00     86272.72
   85.36        3346.25           6844       13272.00     57960.07
   85.39        3346.50           6848        6355.00     27724.68
   85.42        3346.75           6852        2116.00      9224.17
   85.45        3347.00           6856         704.00      3066.56
   85.47        3347.25           6859         384.00      1671.41
   85.50        3347.50           6863         254.00      1104.66
   85.53        3347.75           6867         233.00      1013.11
   85.56        3348.00           6871         175.00       760.26
   85.59        3348.25           6874         188.00       816.94
   85.62        3348.50           6878         181.00       786.42
   85.65        3348.75           6882         169.00       734.11
   85.68        3349.00           6886         163.00       707.95
   85.71        3349.25           6889         152.00       660.00
   85.74        3349.50           6893         164.00       712.31
   85.76        3349.75           6897         155.00       673.07
   85.80        3350.00           6901         166.00       721.03
   85.83        3350.25           6904         168.00       729.75
   85.85        3350.50           6908         160.00       694.87
   85.88        3350.75           6912         161.00       699.23
   85.91        3351.00           6916         170.00       738.47
HL scan finished at 01:27:51
end
