************************************************************
  HL Scan of (1) Internal mercury lamp
************************************************************
Integration time is 0.2294 seconds per sample
dh110519El Arenosillo 37.1 6.73 2.96pr1000
************************************************************
Dead Time -------------------------  3.2E-08 
Number of Cycles Used -------------  4 
Starting Wavelength (Angstroms) ---  3331 
Final Wavelength (Angstoms) -------  3351 
Wavelength Increment (Angstroms) --  .25 
Filter Wheel #1 Position ---------- (1) Ground quartz diffuser (ND=2.32)
Filter Wheel #2 Position ---------- 



************************************************************
HL scan start time = 01:21:03
Dark Count =  .8 


Time (GMT)  Wavelength (Ang)  Step Number  Raw Counts  Counts/Second

   82.50        3331.00           6616         101.00       436.80
   83.54        3331.25           6620         118.00       510.91
   83.56        3331.50           6623         169.00       733.23
   83.59        3331.75           6627         150.00       650.41
   83.62        3332.00           6631         134.00       580.66
   83.65        3332.25           6635         119.00       515.27
   83.68        3332.50           6638         117.00       506.55
   83.70        3332.75           6642         129.00       558.86
   83.74        3333.00           6646         134.00       580.66
   83.77        3333.25           6649         131.00       567.58
   83.79        3333.50           6653         112.00       484.75
   83.82        3333.75           6657         130.00       563.22
   83.85        3334.00           6661         153.00       663.48
   83.88        3334.25           6664         145.00       628.61
   83.91        3334.50           6668         153.00       663.48
   83.94        3334.75           6672         155.00       672.20
   83.97        3335.00           6676         175.00       759.39
   84.00        3335.25           6679         186.00       807.34
   84.03        3335.50           6683         224.00       973.00
   84.06        3335.75           6687         370.00      1609.50
   84.09        3336.00           6691        1398.00      6091.86
   84.11        3336.25           6694        3579.00     15605.87
   84.15        3336.50           6698        9036.00     39435.96
   84.18        3336.75           6702       15686.00     68525.00
   84.20        3337.00           6706       22484.00     98317.55
   84.24        3337.25           6709       27703.00    121228.70
   84.26        3337.50           6713       34854.00    152676.10
   84.29        3337.75           6717       41579.00    182308.10
   84.32        3338.00           6721       48571.00    213176.40
   84.36        3338.25           6724       53909.00    236783.90
   84.38        3338.50           6728       60895.00    267733.90
   84.41        3338.75           6732       67916.00    298901.10
   84.45        3339.00           6736       75180.00    331213.00
   84.47        3339.25           6739       80150.00    353359.40
   84.50        3339.50           6743       87728.00    387188.00
   84.53        3339.75           6747       95434.00    421663.70
   84.56        3340.00           6751      102453.00    453132.60
   84.59        3340.25           6754      107992.00    478011.30
   84.62        3340.50           6758      114838.00    508815.60
   84.65        3340.75           6762      121469.00    538711.10
   84.68        3341.00           6766      125969.00    559031.90
   84.70        3341.25           6769      128324.00    569677.20
   84.73        3341.50           6773      129310.00    574136.40
   84.77        3341.75           6777      127900.00    567760.10
   84.79        3342.00           6781      122976.00    545513.40
   84.82        3342.25           6784      118337.00    524583.50
   84.85        3342.50           6788      111727.00    494809.80
   84.88        3342.75           6792      105025.00    464679.90
   84.91        3343.00           6795      100187.00    442966.30
   84.94        3343.25           6799       92671.00    409293.50
   84.97        3343.50           6803       85809.00    378614.50
   85.00        3343.75           6807       78550.00    346226.30
   85.03        3344.00           6811       71563.00    315115.40
   85.06        3344.25           6814       66200.00    291277.80
   85.09        3344.50           6818       58506.00    257143.00
   85.12        3344.75           6822       51049.00    224131.00
   85.15        3345.00           6826       43930.00    192680.40
   85.18        3345.25           6829       38101.00    166976.10
   85.21        3345.50           6833       30709.00    134440.30
   85.24        3345.75           6837       23459.00    102595.20
   85.27        3346.00           6841       16148.00     70547.93
   85.30        3346.25           6844       11081.00     48375.62
   85.33        3346.50           6848        5294.00     23091.17
   85.35        3346.75           6852        1850.00      8063.11
   85.39        3347.00           6856         591.00      2573.01
   85.42        3347.25           6859         334.00      1452.55
   85.44        3347.50           6863         224.00       973.00
   85.48        3347.75           6867         188.00       816.06
   85.51        3348.00           6871         163.00       707.08
   85.54        3348.25           6874         168.00       728.87
   85.56        3348.50           6878         147.00       637.33
   85.60        3348.75           6882         137.00       593.73
   85.62        3349.00           6886         154.00       667.84
   85.65        3349.25           6889         144.00       624.25
   85.68        3349.50           6893         152.00       659.12
   85.71        3349.75           6897         139.00       602.45
   85.74        3350.00           6901         143.00       619.89
   85.77        3350.25           6904         142.00       615.53
   85.80        3350.50           6908         132.00       571.94
   85.83        3350.75           6912         127.00       550.14
   85.85        3351.00           6916         131.00       567.58
HL scan finished at 01:27:48
end
