************************************************************
  HL Scan of (1) Internal mercury lamp
************************************************************
Integration time is 0.2294 seconds per sample
dh180517El Arenosillo 37.1 6.73 2.96pr1000
************************************************************
Dead Time -------------------------  3.2E-08 
Number of Cycles Used -------------  4 
Starting Wavelength (Angstroms) ---  3331 
Final Wavelength (Angstoms) -------  3351 
Wavelength Increment (Angstroms) --  .25 
Filter Wheel #1 Position ---------- (1) Ground quartz diffuser (ND=2.32)
Filter Wheel #2 Position ---------- 



************************************************************
HL scan start time = 01:19:16
Dark Count =  .7 


Time (GMT)  Wavelength (Ang)  Step Number  Raw Counts  Counts/Second

   80.73        3331.00           6616         139.00       602.89
   81.76        3331.25           6620         103.00       445.95
   81.79        3331.50           6623         117.00       506.98
   81.83        3331.75           6627          98.00       424.16
   81.85        3332.00           6631          96.00       415.44
   81.88        3332.25           6635         100.00       432.87
   81.91        3332.50           6638         138.00       598.53
   81.94        3332.75           6642         139.00       602.89
   81.97        3333.00           6646         101.00       437.23
   81.99        3333.25           6649         100.00       432.87
   82.03        3333.50           6653          98.00       424.16
   82.06        3333.75           6657         119.00       515.70
   82.08        3334.00           6661         106.00       459.03
   82.12        3334.25           6664         100.00       432.87
   82.15        3334.50           6668         113.00       489.55
   82.17        3334.75           6672         138.00       598.53
   82.20        3335.00           6676         146.00       633.40
   82.24        3335.25           6679         167.00       724.95
   82.26        3335.50           6683         171.00       742.39
   82.29        3335.75           6687         401.00      1745.08
   82.32        3336.00           6691        1466.00      6388.84
   82.36        3336.25           6694        2998.00     13071.29
   82.38        3336.50           6698        5965.00     26021.22
   82.41        3336.75           6702        9231.00     40288.61
   82.45        3337.00           6706       12736.00     55614.58
   82.48        3337.25           6709       15272.00     66712.88
   82.50        3337.50           6713       18386.00     80351.50
   82.53        3337.75           6717       21722.00     94975.68
   82.56        3338.00           6721       25201.00    110241.30
   82.59        3338.25           6724       27683.00    121141.30
   82.62        3338.50           6728       31030.00    135852.20
   82.65        3338.75           6732       34590.00    151514.50
   82.68        3339.00           6736       37855.00    165892.70
   82.71        3339.25           6739       40603.00    178004.50
   82.74        3339.50           6743       43943.00    192738.30
   82.77        3339.75           6747       47732.00    209469.60
   82.80        3340.00           6751       51213.00    224856.70
   82.83        3340.25           6754       53745.00    236058.50
   82.86        3340.50           6758       57041.00    250652.40
   82.89        3340.75           6762       59910.00    263366.80
   82.92        3341.00           6766       61618.00    270941.00
   82.94        3341.25           6769       62213.00    273580.40
   82.98        3341.50           6773       62193.00    273491.60
   83.00        3341.75           6777       60822.00    267410.60
   83.03        3342.00           6781       58338.00    256399.00
   83.06        3342.25           6784       55723.00    244815.00
   83.09        3342.50           6788       52325.00    229775.30
   83.12        3342.75           6792       48962.00    214904.80
   83.14        3343.00           6795       46511.00    204076.00
   83.18        3343.25           6799       43186.00    189397.70
   83.20        3343.50           6803       39842.00    174649.50
   83.23        3343.75           6807       36289.00    158994.80
   83.27        3344.00           6811       32741.00    143377.80
   83.30        3344.25           6814       30297.00    132629.30
   83.32        3344.50           6818       26437.00    115668.40
   83.35        3344.75           6822       22973.00    100463.30
   83.39        3345.00           6826       19364.00     84637.38
   83.41        3345.25           6829       16799.00     73399.31
   83.44        3345.50           6833       13401.00     58524.06
   83.48        3345.75           6837        9734.00     42487.11
   83.50        3346.00           6841        6423.00     28021.19
   83.53        3346.25           6844        4025.00     17552.58
   83.56        3346.50           6848        1765.00      7692.83
   83.59        3346.75           6852         633.00      2756.56
   83.62        3347.00           6856         276.00      1200.13
   83.65        3347.25           6859         170.00       738.03
   83.68        3347.50           6863         157.00       681.36
   83.71        3347.75           6867         124.00       537.50
   83.74        3348.00           6871         111.00       480.83
   83.76        3348.25           6874         137.00       594.17
   83.80        3348.50           6878         115.00       498.26
   83.82        3348.75           6882         114.00       493.90
   83.85        3349.00           6886         103.00       445.95
   83.89        3349.25           6889         105.00       454.67
   83.91        3349.50           6893         103.00       445.95
   83.94        3349.75           6897         120.00       520.06
   83.97        3350.00           6901         104.00       450.31
   84.00        3350.25           6904         111.00       480.83
   84.03        3350.50           6908         123.00       533.14
   84.06        3350.75           6912         127.00       550.58
   84.10        3351.00           6916         111.00       480.83
HL scan finished at 01:26:02
end
