************************************************************
  HL Scan of (1) Internal mercury lamp
************************************************************
Integration time is 0.2294 seconds per sample
dh110518El Arenosillo 37.1 6.73 2.54pr1000
************************************************************
Dead Time -------------------------  3.2E-08 
Number of Cycles Used -------------  4 
Starting Wavelength (Angstroms) ---  3331 
Final Wavelength (Angstoms) -------  3351 
Wavelength Increment (Angstroms) --  .25 
Filter Wheel #1 Position ---------- (1) Ground quartz diffuser (ND=2.32)
Filter Wheel #2 Position ---------- 



************************************************************
HL scan start time = 01:20:27
Dark Count =  .3 


Time (GMT)  Wavelength (Ang)  Step Number  Raw Counts  Counts/Second

   81.89        3331.00           6616         143.00       622.07
   82.93        3331.25           6620         158.00       687.46
   82.96        3331.50           6623         157.00       683.10
   82.99        3331.75           6627         162.00       704.90
   83.02        3332.00           6631         156.00       678.74
   83.05        3332.25           6635         147.00       639.51
   83.08        3332.50           6638         135.00       587.20
   83.11        3332.75           6642         166.00       722.34
   83.13        3333.00           6646          94.00       408.46
   83.16        3333.25           6649         140.00       608.99
   83.18        3333.50           6653         140.00       608.99
   83.21        3333.75           6657         139.00       604.63
   83.24        3334.00           6661         141.00       613.35
   83.28        3334.25           6664         142.00       617.71
   83.30        3334.50           6668         183.00       796.45
   83.33        3334.75           6672         189.00       822.60
   83.36        3335.00           6676         208.00       905.43
   83.39        3335.25           6679         258.00      1123.41
   83.42        3335.50           6683         299.00      1302.15
   83.45        3335.75           6687         715.00      3115.83
   83.48        3336.00           6691        2774.00     12095.79
   83.51        3336.25           6694        6574.00     28682.38
   83.54        3336.50           6698       13912.00     60761.89
   83.57        3336.75           6702       22314.00     97574.02
   83.60        3337.00           6706       30203.00    132217.80
   83.63        3337.25           6709       36335.00    159199.10
   83.66        3337.50           6713       44529.00    195326.50
   83.69        3337.75           6717       51819.00    227538.70
   83.72        3338.00           6721       59867.00    263177.90
   83.75        3338.25           6724       65985.00    290325.10
   83.78        3338.50           6728       73814.00    325133.80
   83.81        3338.75           6732       81845.00    360921.80
   83.84        3339.00           6736       90098.00    397785.10
   83.87        3339.25           6739       96054.00    424443.10
   83.90        3339.50           6743      103660.00    458552.70
   83.93        3339.75           6747      111750.00    494915.50
   83.95        3340.00           6751      119494.00    529803.10
   83.99        3340.25           6754      125205.00    555582.40
   84.02        3340.50           6758      133173.00    591621.30
   84.04        3340.75           6762      139998.00    622557.50
   84.07        3341.00           6766      145331.00    646773.90
   84.11        3341.25           6769      147406.00    656206.40
   84.13        3341.50           6773      148361.00    660549.60
   84.16        3341.75           6777      146517.00    652164.50
   84.19        3342.00           6781      141180.00    627921.50
   84.22        3342.25           6784      134984.00    599824.10
   84.25        3342.50           6788      127556.00    566207.10
   84.28        3342.75           6792      119206.00    528504.30
   84.31        3343.00           6795      112795.00    499618.70
   84.34        3343.25           6799      104991.00    464529.40
   84.36        3343.50           6803       74351.00    327524.20
   84.38        3343.75           6807       88732.00    391677.60
   84.41        3344.00           6811       80201.00    353589.00
   84.45        3344.25           6814       73989.00    325912.80
   84.48        3344.50           6818       65947.00    290156.40
   84.50        3344.75           6822       57749.00    253790.80
   84.53        3345.00           6826       49834.00    218761.00
   84.57        3345.25           6829       44337.00    194479.00
   84.60        3345.50           6833       35371.00    154954.30
   84.62        3345.75           6837       27317.00    119535.30
   84.65        3346.00           6841       18402.00     80423.35
   84.69        3346.25           6844       12066.00     52685.53
   84.72        3346.50           6848        5199.00     22678.62
   84.74        3346.75           6852        1580.00      6887.74
   84.77        3347.00           6856         548.00      2387.72
   84.81        3347.25           6859         336.00      1463.45
   84.84        3347.50           6863         262.00      1140.84
   84.86        3347.75           6867         211.00       918.51
   84.89        3348.00           6871         194.00       844.40
   84.93        3348.25           6874         179.00       779.01
   84.95        3348.50           6878         157.00       683.10
   84.98        3348.75           6882         167.00       726.70
   85.01        3349.00           6886         164.00       713.62
   85.04        3349.25           6889         164.00       713.62
   85.07        3349.50           6893         157.00       683.10
   85.10        3349.75           6897         165.00       717.98
   85.13        3350.00           6901         159.00       691.82
   85.16        3350.25           6904         164.00       713.62
   85.19        3350.50           6908         155.00       674.38
   85.21        3350.75           6912         149.00       648.23
   85.24        3351.00           6916         158.00       687.46
HL scan finished at 01:27:11
end
