************************************************************
  HL Scan of (1) Internal mercury lamp
************************************************************
Integration time is 0.2294 seconds per sample
dh180519El Arenosillo 37.1 6.73 2.74pr1000
************************************************************
Dead Time -------------------------  3.2E-08 
Number of Cycles Used -------------  4 
Starting Wavelength (Angstroms) ---  3331 
Final Wavelength (Angstoms) -------  3351 
Wavelength Increment (Angstroms) --  .25 
Filter Wheel #1 Position ---------- (1) Ground quartz diffuser (ND=2.32)
Filter Wheel #2 Position ---------- 



************************************************************
HL scan start time = 01:21:36
Dark Count =  .3 


Time (GMT)  Wavelength (Ang)  Step Number  Raw Counts  Counts/Second

   83.06        3331.00           6616         116.00       504.37
   84.09        3331.25           6620         135.00       587.20
   84.12        3331.50           6623         165.00       717.98
   84.15        3331.75           6627         128.00       556.68
   84.19        3332.00           6631         152.00       661.30
   84.21        3332.25           6635         119.00       517.45
   84.24        3332.50           6638         130.00       565.40
   84.27        3332.75           6642         125.00       543.60
   84.29        3333.00           6646         137.00       595.91
   84.32        3333.25           6649         129.00       561.04
   84.36        3333.50           6653         114.00       495.65
   84.38        3333.75           6657         119.00       517.45
   84.41        3334.00           6661         147.00       639.51
   84.45        3334.25           6664         134.00       582.84
   84.48        3334.50           6668         150.00       652.59
   84.50        3334.75           6672         156.00       678.74
   84.54        3335.00           6676         164.00       713.62
   84.57        3335.25           6679         190.00       826.96
   84.59        3335.50           6683         231.00      1005.70
   84.63        3335.75           6687         348.00      1515.77
   84.66        3336.00           6691        1334.00      5814.94
   84.68        3336.25           6694        3492.00     15228.43
   84.72        3336.50           6698        9247.00     40360.29
   84.75        3336.75           6702       15999.00     69897.66
   84.77        3337.00           6706       22936.00    100302.70
   84.81        3337.25           6709       28115.00    123041.00
   84.84        3337.50           6713       34986.00    153259.40
   84.86        3337.75           6717       41378.00    181423.80
   84.90        3338.00           6721       48084.00    211026.60
   84.93        3338.25           6724       52905.00    232343.20
   84.95        3338.50           6728       59543.00    261741.60
   84.99        3338.75           6732       66292.00    291688.60
   85.02        3339.00           6736       73275.00    322734.80
   85.04        3339.25           6739       78435.00    345716.00
   85.08        3339.50           6743       85565.00    377526.90
   85.11        3339.75           6747       92576.00    408870.60
   85.13        3340.00           6751       99677.00    440681.30
   85.17        3340.25           6754      104633.00    462921.70
   85.20        3340.50           6758      111212.00    492494.70
   85.22        3340.75           6762      117178.00    519361.10
   85.26        3341.00           6766      121452.00    538636.60
   85.29        3341.25           6769      123810.00    549281.40
   85.31        3341.50           6773      124341.00    551679.50
   85.35        3341.75           6777      123324.00    547086.80
   85.37        3342.00           6781      119043.00    527769.10
   85.40        3342.25           6784      114145.00    505696.90
   85.43        3342.50           6788      107574.00    476134.60
   85.46        3342.75           6792      100393.00    443892.50
   85.49        3343.00           6795       95170.00    420483.50
   85.52        3343.25           6799       87976.00    388298.50
   85.55        3343.50           6803       81442.00    359124.00
   85.58        3343.75           6807       74669.00    328940.00
   85.61        3344.00           6811       67615.00    297565.90
   85.64        3344.25           6814       63043.00    277264.80
   85.67        3344.50           6818       56329.00    247500.40
   85.70        3344.75           6822       49175.00    215848.00
   85.73        3345.00           6826       42108.00    184643.60
   85.76        3345.25           6829       36192.00    158569.40
   85.79        3345.50           6833       28925.00    126600.40
   85.82        3345.75           6837       21825.00     95429.16
   85.85        3346.00           6841       14478.00     63239.01
   85.88        3346.25           6844       10175.00     44416.62
   85.91        3346.50           6848        5207.00     22713.54
   85.94        3346.75           6852        1777.00      7746.91
   85.97        3347.00           6856         629.00      2740.87
   86.00        3347.25           6859         309.00      1345.74
   86.02        3347.50           6863         234.00      1018.78
   86.05        3347.75           6867         190.00       826.96
   86.08        3348.00           6871         172.00       748.49
   86.11        3348.25           6874         152.00       661.30
   86.14        3348.50           6878         152.00       661.30
   86.17        3348.75           6882         146.00       635.15
   86.20        3349.00           6886         134.00       582.84
   86.23        3349.25           6889         149.00       648.23
   86.26        3349.50           6893         150.00       652.59
   86.29        3349.75           6897         142.00       617.71
   86.32        3350.00           6901         135.00       587.20
   86.35        3350.25           6904         158.00       687.46
   86.38        3350.50           6908         147.00       639.51
   86.41        3350.75           6912         142.00       617.71
   86.44        3351.00           6916         148.00       643.87
HL scan finished at 01:28:23
end
