************************************************************
  HL Scan of (1) Internal mercury lamp
************************************************************
Integration time is 0.2294 seconds per sample
dh110517El Arenosillo 37.1 6.73 2.78pr1000
************************************************************
Dead Time -------------------------  3.2E-08 
Number of Cycles Used -------------  4 
Starting Wavelength (Angstroms) ---  3331 
Final Wavelength (Angstoms) -------  3351 
Wavelength Increment (Angstroms) --  .25 
Filter Wheel #1 Position ---------- (1) Ground quartz diffuser (ND=2.32)
Filter Wheel #2 Position ---------- 



************************************************************
HL scan start time = 01:21:46
Dark Count =  .5 


Time (GMT)  Wavelength (Ang)  Step Number  Raw Counts  Counts/Second

   83.22        3331.00           6616          97.00       420.67
   84.25        3331.25           6620         103.00       446.82
   84.29        3331.50           6623         120.00       520.93
   84.31        3331.75           6627          98.00       425.03
   84.34        3332.00           6631         120.00       520.93
   84.38        3332.25           6635         108.00       468.62
   84.40        3332.50           6638         126.00       547.09
   84.43        3332.75           6642         106.00       459.90
   84.47        3333.00           6646         102.00       442.46
   84.49        3333.25           6649         101.00       438.11
   84.52        3333.50           6653         106.00       459.90
   84.56        3333.75           6657         124.00       538.37
   84.58        3334.00           6661         104.00       451.18
   84.61        3334.25           6664         129.00       560.17
   84.64        3334.50           6668         135.00       586.32
   84.67        3334.75           6672         142.00       616.84
   84.70        3335.00           6676         154.00       669.15
   84.74        3335.25           6679         143.00       621.20
   84.76        3335.50           6683         174.00       756.34
   84.79        3335.75           6687         364.00      1584.65
   84.83        3336.00           6691        1438.00      6267.60
   84.85        3336.25           6694        3222.00     14049.47
   84.88        3336.50           6698        6342.00     27668.34
   84.92        3336.75           6702        9614.00     41963.46
   84.94        3337.00           6706       13055.00     57011.07
   84.97        3337.25           6709       15582.00     68070.96
   85.00        3337.50           6713       18826.00     82280.44
   85.03        3337.75           6717       22161.00     96902.02
   85.06        3338.00           6721       25637.00    112156.40
   85.09        3338.25           6724       28332.00    123993.60
   85.12        3338.50           6728       31915.00    139745.20
   85.15        3338.75           6732       35473.00    155402.50
   85.18        3339.00           6736       39000.00    170939.10
   85.22        3339.25           6739       41350.00    181299.40
   85.24        3339.50           6743       44962.00    197237.00
   85.28        3339.75           6747       47994.00    210628.10
   85.31        3340.00           6751       51680.00    226923.00
   85.33        3340.25           6754       54103.00    237643.90
   85.36        3340.50           6758       57623.00    253231.70
   85.40        3340.75           6762       60302.00    265105.70
   85.42        3341.00           6766       62537.00    275018.70
   85.45        3341.25           6769       62927.00    276749.10
   85.49        3341.50           6773       62929.00    276758.00
   85.51        3341.75           6777       61422.00    270072.50
   85.54        3342.00           6781       59073.00    259657.30
   85.57        3342.25           6784       56678.00    249045.30
   85.60        3342.50           6788       53039.00    232935.20
   85.63        3342.75           6792       49728.00    218291.50
   85.66        3343.00           6795       47107.00    206709.40
   85.69        3343.25           6799       43629.00    191353.40
   85.72        3343.50           6803       39925.00    175016.20
   85.75        3343.75           6807       36427.00    159603.40
   85.78        3344.00           6811       33248.00    145609.30
   85.81        3344.25           6814       30729.00    134529.50
   85.84        3344.50           6818       27132.00    118721.80
   85.87        3344.75           6822       24159.00    105668.40
   85.90        3345.00           6826       20767.00     90788.66
   85.93        3345.25           6829       18055.00     78902.11
   85.96        3345.50           6833       14259.00     62279.63
   85.99        3345.75           6837       10570.00     46142.62
   86.03        3346.00           6841        6914.00     30166.43
   86.05        3346.25           6844        4305.00     18775.45
   86.08        3346.50           6848        1948.00      8491.85
   86.11        3346.75           6852         677.00      2949.28
   86.14        3347.00           6856         261.00      1135.61
   86.17        3347.25           6859         184.00       799.93
   86.20        3347.50           6863         156.00       677.87
   86.23        3347.75           6867         148.00       642.99
   86.26        3348.00           6871         108.00       468.62
   86.29        3348.25           6874         109.00       472.98
   86.31        3348.50           6878         112.00       486.06
   86.34        3348.75           6882         117.00       507.85
   86.37        3349.00           6886         110.00       477.34
   86.40        3349.25           6889         120.00       520.93
   86.43        3349.50           6893         150.00       651.71
   86.46        3349.75           6897         131.00       568.89
   86.49        3350.00           6901         123.00       534.01
   86.52        3350.25           6904         106.00       459.90
   86.55        3350.50           6908         131.00       568.89
   86.58        3350.75           6912         125.00       542.73
   86.61        3351.00           6916         131.00       568.89
HL scan finished at 01:28:33
end
