************************************************************
  HL Scan of (1) Internal mercury lamp
************************************************************
Integration time is 0.2294 seconds per sample
dh250519El Arenosillo 37.1 6.73 3.01pr1000
************************************************************
Dead Time -------------------------  3.2E-08 
Number of Cycles Used -------------  4 
Starting Wavelength (Angstroms) ---  3331 
Final Wavelength (Angstoms) -------  3351 
Wavelength Increment (Angstroms) --  .25 
Filter Wheel #1 Position ---------- (1) Ground quartz diffuser (ND=2.32)
Filter Wheel #2 Position ---------- 



************************************************************
HL scan start time = 01:21:40
Dark Count =  .8 


Time (GMT)  Wavelength (Ang)  Step Number  Raw Counts  Counts/Second

   83.11        3331.00           6616         145.00       628.61
   84.15        3331.25           6620         147.00       637.33
   84.17        3331.50           6623          95.00       410.64
   84.19        3331.75           6627         154.00       667.84
   84.22        3332.00           6631         107.00       462.95
   84.25        3332.25           6635         117.00       506.55
   84.27        3332.50           6638         143.00       619.89
   84.30        3332.75           6642         115.00       497.83
   84.34        3333.00           6646         152.00       659.12
   84.36        3333.25           6649         117.00       506.55
   84.39        3333.50           6653         126.00       545.78
   84.42        3333.75           6657         161.00       698.36
   84.45        3334.00           6661         118.00       510.91
   84.48        3334.25           6664         137.00       593.73
   84.51        3334.50           6668         176.00       763.75
   84.54        3334.75           6672         155.00       672.20
   84.57        3335.00           6676         175.00       759.39
   84.60        3335.25           6679         217.00       942.49
   84.63        3335.50           6683         268.00      1164.82
   84.66        3335.75           6687         382.00      1661.81
   84.68        3336.00           6691        1542.00      6719.84
   84.71        3336.25           6694        4254.00     18551.55
   84.75        3336.50           6698       10560.00     46097.60
   84.77        3336.75           6702       17853.00     78015.80
   84.80        3337.00           6706       25474.00    111439.40
   84.84        3337.25           6709       31177.00    136498.10
   84.86        3337.50           6713       38925.00    170607.20
   84.89        3337.75           6717       46433.00    203731.00
   84.92        3338.00           6721       53828.00    236425.40
   84.95        3338.25           6724       59519.00    261632.90
   84.98        3338.50           6728       67172.00    295595.50
   85.01        3338.75           6732       74860.00    329788.10
   85.05        3339.00           6736       82904.00    365644.80
   85.07        3339.25           6739       88939.00    392600.80
   85.10        3339.50           6743       97105.00    429149.60
   85.13        3339.75           6747      105157.00    465272.70
   85.17        3340.00           6751      112820.00    499729.00
   85.19        3340.25           6754      118620.00    525859.50
   85.22        3340.50           6758      126448.00    561196.60
   85.25        3340.75           6762      133507.00    593131.60
   85.28        3341.00           6766      138701.00    616671.50
   85.31        3341.25           6769      140609.00    625327.80
   85.34        3341.50           6773      141980.00    631550.70
   85.37        3341.75           6777      140645.00    625491.10
   85.40        3342.00           6781      135648.00    602830.50
   85.42        3342.25           6784      130536.00    579682.80
   85.46        3342.50           6788      123246.00    546732.40
   85.49        3342.75           6792      115407.00    511378.70
   85.51        3343.00           6795      109626.00    485358.10
   85.54        3343.25           6799      102000.00    451099.70
   85.58        3343.50           6803       94081.00    415605.00
   85.60        3343.75           6807       86861.00    383313.90
   85.63        3344.00           6811       79023.00    348334.60
   85.67        3344.25           6814       73152.00    322185.20
   85.70        3344.50           6818       65047.00    286157.70
   85.72        3344.75           6822       56723.00    249243.30
   85.75        3345.00           6826       48279.00    211886.00
   85.79        3345.25           6829       42024.00    184270.90
   85.82        3345.50           6833       33901.00    148481.50
   85.84        3345.75           6837       25976.00    113643.60
   85.88        3346.00           6841       17995.00     78637.93
   85.90        3346.25           6844       11996.00     52377.17
   85.93        3346.50           6848        5720.00     24951.04
   85.96        3346.75           6852        1876.00      8176.51
   85.99        3347.00           6856         624.00      2716.89
   86.02        3347.25           6859         354.00      1539.74
   86.04        3347.50           6863         235.00      1020.96
   86.08        3347.75           6867         210.00       911.97
   86.11        3348.00           6871         170.00       737.59
   86.13        3348.25           6874         162.00       702.72
   86.16        3348.50           6878         145.00       628.61
   86.20        3348.75           6882         151.00       654.77
   86.22        3349.00           6886         151.00       654.77
   86.25        3349.25           6889         164.00       711.44
   86.29        3349.50           6893         137.00       593.73
   86.31        3349.75           6897         133.00       576.30
   86.34        3350.00           6901         148.00       641.69
   86.37        3350.25           6904         135.00       585.02
   86.40        3350.50           6908         155.00       672.20
   86.43        3350.75           6912         156.00       676.56
   86.46        3351.00           6916         134.00       580.66
HL scan finished at 01:28:24
end
