************************************************************
  HL Scan of (1) Internal mercury lamp
************************************************************
Integration time is 0.2294 seconds per sample
dh250517El Arenosillo 37.1 6.73 2.94pr1000
************************************************************
Dead Time -------------------------  3.2E-08 
Number of Cycles Used -------------  4 
Starting Wavelength (Angstroms) ---  3331 
Final Wavelength (Angstoms) -------  3351 
Wavelength Increment (Angstroms) --  .25 
Filter Wheel #1 Position ---------- (1) Ground quartz diffuser (ND=2.32)
Filter Wheel #2 Position ---------- 



************************************************************
HL scan start time = 01:19:42
Dark Count =  .8 


Time (GMT)  Wavelength (Ang)  Step Number  Raw Counts  Counts/Second

   81.16        3331.00           6616          85.00       367.05
   82.19        3331.25           6620         116.00       502.19
   82.23        3331.50           6623          91.00       393.20
   82.25        3331.75           6627         121.00       523.98
   82.28        3332.00           6631         109.00       471.67
   82.32        3332.25           6635         112.00       484.75
   82.35        3332.50           6638          89.00       384.49
   82.37        3332.75           6642         103.00       445.52
   82.41        3333.00           6646         102.00       441.16
   82.44        3333.25           6649         108.00       467.31
   82.47        3333.50           6653          93.00       401.92
   82.50        3333.75           6657         101.00       436.80
   82.53        3334.00           6661         118.00       510.91
   82.56        3334.25           6664         129.00       558.86
   82.59        3334.50           6668         103.00       445.52
   82.62        3334.75           6672         124.00       537.06
   82.65        3335.00           6676         128.00       554.50
   82.68        3335.25           6679         143.00       619.89
   82.71        3335.50           6683         153.00       663.48
   82.74        3335.75           6687         267.00      1160.46
   82.78        3336.00           6691         841.00      3663.03
   82.80        3336.25           6694        2012.00      8769.68
   82.83        3336.50           6698        4755.00     20738.26
   82.86        3336.75           6702        8188.00     35730.46
   82.89        3337.00           6706       11649.00     50859.53
   82.92        3337.25           6709       14403.00     62908.56
   82.95        3337.50           6713       18109.00     79137.38
   82.98        3337.75           6717       21486.00     93940.21
   83.01        3338.00           6721       25074.00    109683.40
   83.05        3338.25           6724       27708.00    121250.70
   83.07        3338.50           6728       31364.00    137320.50
   83.10        3338.75           6732       35120.00    153847.10
   83.13        3339.00           6736       38849.00    170272.30
   83.17        3339.25           6739       41972.00    184041.50
   83.19        3339.50           6743       45667.00    200348.40
   83.23        3339.75           6747       49478.00    217185.10
   83.26        3340.00           6751       53422.00    234628.60
   83.29        3340.25           6754       55923.00    245700.20
   83.31        3340.50           6758       59561.00    261819.10
   83.35        3340.75           6762       62974.00    276956.40
   83.38        3341.00           6766       65340.00    287458.60
   83.41        3341.25           6769       66364.00    292006.20
   83.44        3341.50           6773       66933.00    294533.70
   83.47        3341.75           6777       65843.00    289692.30
   83.50        3342.00           6781       63615.00    279801.00
   83.53        3342.25           6784       61290.00    269485.70
   83.56        3342.50           6788       57895.00    254435.50
   83.59        3342.75           6792       54487.00    239342.30
   83.63        3343.00           6795       51506.00    226152.10
   83.65        3343.25           6799       47564.00    208726.90
   83.68        3343.50           6803       43853.00    192340.60
   83.72        3343.75           6807       39764.00    174305.20
   83.74        3344.00           6811       35853.00    157074.40
   83.77        3344.25           6814       33128.00    145080.00
   83.81        3344.50           6818       29430.00    128817.60
   83.84        3344.75           6822       25654.00    112229.70
   83.86        3345.00           6826       22083.00     96558.58
   83.90        3345.25           6829       19138.00     83646.44
   83.93        3345.50           6833       15491.00     67671.24
   83.96        3345.75           6837       11526.00     50321.60
   83.99        3346.00           6841        7819.00     34118.31
   84.02        3346.25           6844        5203.00     22693.90
   84.04        3346.50           6848        2375.00     10353.04
   84.08        3346.75           6852         864.00      3763.31
   84.10        3347.00           6856         321.00      1395.88
   84.13        3347.25           6859         238.00      1034.04
   84.17        3347.50           6863         155.00       672.20
   84.19        3347.75           6867         147.00       637.33
   84.22        3348.00           6871         132.00       571.94
   84.26        3348.25           6874         166.00       720.16
   84.29        3348.50           6878         108.00       467.31
   84.31        3348.75           6882         130.00       563.22
   84.35        3349.00           6886         112.00       484.75
   84.38        3349.25           6889         103.00       445.52
   84.40        3349.50           6893         124.00       537.06
   84.44        3349.75           6897         124.00       537.06
   84.47        3350.00           6901          94.00       406.28
   84.50        3350.25           6904         109.00       471.67
   84.53        3350.50           6908          96.00       415.00
   84.56        3350.75           6912         115.00       497.83
   84.58        3351.00           6916         104.00       449.88
HL scan finished at 01:26:32
end
