************************************************************
  HL Scan of (1) Internal mercury lamp
************************************************************
Integration time is 0.2294 seconds per sample
dh250518El Arenosillo 37.1 6.73 2.78pr1000
************************************************************
Dead Time -------------------------  3.2E-08 
Number of Cycles Used -------------  4 
Starting Wavelength (Angstroms) ---  3331 
Final Wavelength (Angstoms) -------  3351 
Wavelength Increment (Angstroms) --  .25 
Filter Wheel #1 Position ---------- (1) Ground quartz diffuser (ND=2.32)
Filter Wheel #2 Position ---------- 



************************************************************
HL scan start time = 01:22:10
Dark Count =  .5 


Time (GMT)  Wavelength (Ang)  Step Number  Raw Counts  Counts/Second

   83.61        3331.00           6616         133.00       577.60
   84.65        3331.25           6620         150.00       651.71
   84.67        3331.50           6623         131.00       568.89
   84.70        3331.75           6627         133.00       577.60
   84.74        3332.00           6631         142.00       616.84
   84.76        3332.25           6635         135.00       586.32
   84.79        3332.50           6638         145.00       629.92
   84.82        3332.75           6642         168.00       730.18
   84.85        3333.00           6646         145.00       629.92
   84.88        3333.25           6649         145.00       629.92
   84.91        3333.50           6653         152.00       660.43
   84.94        3333.75           6657         155.00       673.51
   84.97        3334.00           6661         144.00       625.56
   85.00        3334.25           6664         156.00       677.87
   85.03        3334.50           6668         155.00       673.51
   85.06        3334.75           6672         179.00       778.14
   85.08        3335.00           6676         191.00       830.45
   85.11        3335.25           6679         273.00      1187.93
   85.14        3335.50           6683         296.00      1288.20
   85.17        3335.75           6687         554.00      2413.00
   85.20        3336.00           6691        2552.00     11126.46
   85.24        3336.25           6694        6348.00     27694.54
   85.26        3336.50           6698       13995.00     61124.24
   85.29        3336.75           6702       22711.00     99314.69
   85.33        3337.00           6706       31754.00    139037.00
   85.35        3337.25           6709       38041.00    166713.10
   85.38        3337.50           6713       46852.00    205583.00
   85.41        3337.75           6717       55341.00    243124.40
   85.44        3338.00           6721       64370.00    283153.50
   85.47        3338.25           6724       71184.00    313430.90
   85.50        3338.50           6728       80337.00    354194.60
   85.53        3338.75           6732       89326.00    394332.20
   85.56        3339.00           6736       98007.00    433193.30
   85.59        3339.25           6739      104818.00    463751.60
   85.62        3339.50           6743      113172.00    501315.00
   85.65        3339.75           6747      121651.00    539533.80
   85.68        3340.00           6751      130715.00    580494.00
   85.71        3340.25           6754      136999.00    608955.10
   85.74        3340.50           6758      145884.00    649286.30
   85.77        3340.75           6762      153562.00    684223.30
   85.80        3341.00           6766      159203.00    709942.00
   85.83        3341.25           6769      161201.00    719061.50
   85.86        3341.50           6773      161669.00    721198.50
   85.89        3341.75           6777      158834.00    708258.30
   85.92        3342.00           6781      152657.00    680101.20
   85.95        3342.25           6784      146880.00    653813.90
   85.97        3342.50           6788      138149.00    614169.40
   86.00        3342.75           6792      129413.00    574603.60
   86.04        3343.00           6795      122927.00    545293.50
   86.06        3343.25           6799      113993.00    505011.50
   86.09        3343.50           6803      104934.00    464272.50
   86.13        3343.75           6807       96495.00    426417.70
   86.16        3344.00           6811       87780.00    387421.60
   86.18        3344.25           6814       81392.00    358900.00
   86.22        3344.50           6818       72192.00    317914.90
   86.25        3344.75           6822       64229.00    282527.50
   86.28        3345.00           6826       55315.00    243009.30
   86.30        3345.25           6829       48383.00    212346.90
   86.34        3345.50           6833       38837.00    170220.70
   86.36        3345.75           6837       29380.00    128599.20
   86.39        3346.00           6841       19967.00     87281.37
   86.43        3346.25           6844       13004.00     56787.94
   86.45        3346.50           6848        6095.00     26589.75
   86.48        3346.75           6852        1960.00      8544.18
   86.51        3347.00           6856         635.00      2766.16
   86.53        3347.25           6859         376.00      1636.96
   86.56        3347.50           6863         285.00      1240.24
   86.59        3347.75           6867         238.00      1035.34
   86.63        3348.00           6871         196.00       852.25
   86.65        3348.25           6874         185.00       804.29
   86.68        3348.50           6878         174.00       756.34
   86.72        3348.75           6882         174.00       756.34
   86.74        3349.00           6886         163.00       708.39
   86.77        3349.25           6889         150.00       651.71
   86.80        3349.50           6893         159.00       690.95
   86.83        3349.75           6897         168.00       730.18
   86.86        3350.00           6901         157.00       682.23
   86.89        3350.25           6904         175.00       760.70
   86.92        3350.50           6908         148.00       642.99
   86.95        3350.75           6912         158.00       686.59
   86.98        3351.00           6916         165.00       717.10
HL scan finished at 01:28:55
end
