************************************************************
  HL Scan of (1) Internal mercury lamp
************************************************************
Integration time is 0.2294 seconds per sample
dh010618El Arenosillo 37.1 6.73 2.82pr1000
************************************************************
Dead Time -------------------------  3.2E-08 
Number of Cycles Used -------------  4 
Starting Wavelength (Angstroms) ---  3331 
Final Wavelength (Angstoms) -------  3351 
Wavelength Increment (Angstroms) --  .25 
Filter Wheel #1 Position ---------- (1) Ground quartz diffuser (ND=2.32)
Filter Wheel #2 Position ---------- 



************************************************************
HL scan start time = 01:23:10
Dark Count =  .5 


Time (GMT)  Wavelength (Ang)  Step Number  Raw Counts  Counts/Second

   84.61        3331.00           6616         143.00       621.20
   85.65        3331.25           6620         136.00       590.68
   85.68        3331.50           6623         146.00       634.28
   85.71        3331.75           6627         144.00       625.56
   85.74        3332.00           6631         147.00       638.64
   85.77        3332.25           6635         133.00       577.60
   85.80        3332.50           6638         144.00       625.56
   85.83        3332.75           6642         141.00       612.48
   85.86        3333.00           6646         155.00       673.51
   85.89        3333.25           6649         133.00       577.60
   85.91        3333.50           6653         139.00       603.76
   85.95        3333.75           6657         137.00       595.04
   85.98        3334.00           6661         140.00       608.12
   86.00        3334.25           6664         150.00       651.71
   86.04        3334.50           6668         163.00       708.39
   86.06        3334.75           6672         181.00       786.86
   86.09        3335.00           6676         204.00       887.12
   86.12        3335.25           6679         274.00      1192.29
   86.16        3335.50           6683         279.00      1214.08
   86.18        3335.75           6687         466.00      2029.34
   86.21        3336.00           6691        1895.00      8260.68
   86.25        3336.25           6694        4653.00     20294.34
   86.28        3336.50           6698       11602.00     50655.28
   86.30        3336.75           6702       20129.00     87991.52
   86.34        3337.00           6706       29226.00    127922.30
   86.36        3337.25           6709       35786.00    156780.70
   86.39        3337.50           6713       44872.00    196839.70
   86.42        3337.75           6717       53593.00    235386.70
   86.46        3338.00           6721       62018.00    272716.20
   86.48        3338.25           6724       69175.00    304498.00
   86.51        3338.50           6728       77618.00    342074.10
   86.55        3338.75           6732       86354.00    381050.20
   86.57        3339.00           6736       95975.00    424088.20
   86.60        3339.25           6739      102076.00    451442.10
   86.63        3339.50           6743      111304.00    492907.70
   86.66        3339.75           6747      120698.00    535233.50
   86.69        3340.00           6751      130248.00    578381.00
   86.71        3340.25           6754      136757.00    607858.20
   86.75        3340.50           6758      145578.00    647895.40
   86.78        3340.75           6762      153688.00    684797.40
   86.80        3341.00           6766      159784.00    712593.30
   86.84        3341.25           6769      162022.00    722810.50
   86.86        3341.50           6773      163274.00    728529.20
   86.89        3341.75           6777      161788.00    721742.00
   86.92        3342.00           6781      156133.00    695939.90
   86.95        3342.25           6784      150520.00    670372.00
   86.98        3342.50           6788      141797.00    630721.30
   87.01        3342.75           6792      133121.00    591385.00
   87.04        3343.00           6795      126423.00    561084.90
   87.07        3343.25           6799      117447.00    520572.70
   87.09        3343.50           6803      109197.00    483430.20
   87.13        3343.75           6807       99976.00    442021.20
   87.16        3344.00           6811       91032.00    401961.60
   87.18        3344.25           6814       84316.00    371948.80
   87.22        3344.50           6818       74643.00    328823.30
   87.25        3344.75           6822       65476.00    288063.90
   87.28        3345.00           6826       55779.00    245063.80
   87.30        3345.25           6829       49006.00    215100.20
   87.34        3345.50           6833       39540.00    173319.10
   87.37        3345.75           6837       29883.00    130810.20
   87.39        3346.00           6841       20837.00     91095.59
   87.43        3346.25           6844       14014.00     61207.39
   87.46        3346.50           6848        6720.00     29319.13
   87.48        3346.75           6852        2174.00      9477.59
   87.51        3347.00           6856         657.00      2862.08
   87.55        3347.25           6859         354.00      1541.05
   87.57        3347.50           6863         279.00      1214.08
   87.60        3347.75           6867         212.00       922.00
   87.64        3348.00           6871         198.00       860.97
   87.66        3348.25           6874         187.00       813.01
   87.69        3348.50           6878         171.00       743.26
   87.72        3348.75           6882         178.00       773.78
   87.75        3349.00           6886         159.00       690.95
   87.77        3349.25           6889         162.00       704.03
   87.80        3349.50           6893         158.00       686.59
   87.84        3349.75           6897         166.00       721.46
   87.86        3350.00           6901         169.00       734.54
   87.89        3350.25           6904         161.00       699.67
   87.93        3350.50           6908         168.00       730.18
   87.95        3350.75           6912         153.00       664.79
   87.98        3351.00           6916         160.00       695.31
HL scan finished at 01:29:55
end
