************************************************************
  HL Scan of (1) Internal mercury lamp
************************************************************
Integration time is 0.2294 seconds per sample
dh310517El Arenosillo 37.1 6.73 3.25pr1000
************************************************************
Dead Time -------------------------  3.2E-08 
Number of Cycles Used -------------  4 
Starting Wavelength (Angstroms) ---  3331 
Final Wavelength (Angstoms) -------  3351 
Wavelength Increment (Angstroms) --  .25 
Filter Wheel #1 Position ---------- (1) Ground quartz diffuser (ND=2.32)
Filter Wheel #2 Position ---------- 



************************************************************
HL scan start time = 20:32:39
Dark Count =  1.6 


Time (GMT)  Wavelength (Ang)  Step Number  Raw Counts  Counts/Second

 1234.12        3331.00           6616         121.00       520.50
 1235.15        3331.25           6620          92.00       394.08
 1235.18        3331.50           6623          91.00       389.72
 1235.21        3331.75           6627          96.00       411.51
 1235.24        3332.00           6631         101.00       433.31
 1235.27        3332.25           6635          90.00       385.36
 1235.30        3332.50           6638          98.00       420.23
 1235.32        3332.75           6642         102.00       437.67
 1235.36        3333.00           6646          89.00       381.00
 1235.39        3333.25           6649         100.00       428.95
 1235.41        3333.50           6653          95.00       407.15
 1235.44        3333.75           6657         102.00       437.67
 1235.48        3334.00           6661          98.00       420.23
 1235.50        3334.25           6664         119.00       511.78
 1235.53        3334.50           6668         107.00       459.47
 1235.56        3334.75           6672         160.00       690.51
 1235.59        3335.00           6676         123.00       529.22
 1235.62        3335.25           6679         148.00       638.20
 1235.64        3335.50           6683         157.00       677.43
 1235.67        3335.75           6687         262.00      1135.18
 1235.71        3336.00           6691         951.00      4139.17
 1235.73        3336.25           6694        2108.00      9184.91
 1235.76        3336.50           6698        4796.00     20913.73
 1235.79        3336.75           6702        8088.00     35290.05
 1235.82        3337.00           6706       11198.00     48883.74
 1235.85        3337.25           6709       13864.00     60546.14
 1235.88        3337.50           6713       17385.00     75962.11
 1235.90        3337.75           6717       20863.00     91204.78
 1235.94        3338.00           6721       24322.00    106379.00
 1235.97        3338.25           6724       27249.00    119230.90
 1236.00        3338.50           6728       30461.00    133346.40
 1236.02        3338.75           6732       34212.00    149846.70
 1236.06        3339.00           6736       38096.00    166950.60
 1236.09        3339.25           6739       40936.00    179468.90
 1236.12        3339.50           6743       44525.00    195303.10
 1236.14        3339.75           6747       48144.00    211286.00
 1236.18        3340.00           6751       51625.00    226674.90
 1236.21        3340.25           6754       54482.00    239316.60
 1236.23        3340.50           6758       58030.00    255030.10
 1236.26        3340.75           6762       61190.00    269038.60
 1236.30        3341.00           6766       63692.00    280139.10
 1236.32        3341.25           6769       64987.00    285887.70
 1236.35        3341.50           6773       65132.00    286531.50
 1236.38        3341.75           6777       64330.00    282971.00
 1236.41        3342.00           6781       62689.00    275688.20
 1236.44        3342.25           6784       60338.00    265260.40
 1236.47        3342.50           6788       56613.00    248752.50
 1236.49        3342.75           6792       52844.00    232067.50
 1236.53        3343.00           6795       50301.00    220819.90
 1236.56        3343.25           6799       46358.00    203396.30
 1236.58        3343.50           6803       42558.00    186622.90
 1236.61        3343.75           6807       38915.00    170559.60
 1236.65        3344.00           6811       35269.00    154499.50
 1236.68        3344.25           6814       32347.00    141640.50
 1236.70        3344.50           6818       28932.00    126625.40
 1236.73        3344.75           6822       25272.00    110549.10
 1236.77        3345.00           6826       21648.00     94647.18
 1236.79        3345.25           6829       19052.00     83266.03
 1236.82        3345.50           6833       15262.00     66665.18
 1236.85        3345.75           6837       11444.00     49959.50
 1236.89        3346.00           6841        7679.00     33503.20
 1236.91        3346.25           6844        5198.00     22668.58
 1236.94        3346.50           6848        2601.00     11335.41
 1236.97        3346.75           6852         993.00      4322.31
 1237.00        3347.00           6856         399.00      1732.44
 1237.03        3347.25           6859         222.00       960.80
 1237.05        3347.50           6863         164.00       707.95
 1237.08        3347.75           6867         132.00       568.45
 1237.12        3348.00           6871         139.00       598.97
 1237.14        3348.25           6874         129.00       555.37
 1237.17        3348.50           6878         129.00       555.37
 1237.20        3348.75           6882         127.00       546.65
 1237.23        3349.00           6886         101.00       433.31
 1237.26        3349.25           6889          98.00       420.23
 1237.29        3349.50           6893         107.00       459.47
 1237.31        3349.75           6897         109.00       468.18
 1237.35        3350.00           6901         110.00       472.54
 1237.38        3350.25           6904         127.00       546.65
 1237.40        3350.50           6908         121.00       520.50
 1237.43        3350.75           6912         105.00       450.75
 1237.46        3351.00           6916          97.00       415.87
HL scan finished at 20:39:24
end
