************************************************************
  HL Scan of (1) Internal mercury lamp
************************************************************
Integration time is 0.2294 seconds per sample
dh050617El Arenosillo 37.1 6.73 3.58pr1000
************************************************************
Dead Time -------------------------  3.2E-08 
Number of Cycles Used -------------  4 
Starting Wavelength (Angstroms) ---  3331 
Final Wavelength (Angstoms) -------  3351 
Wavelength Increment (Angstroms) --  .25 
Filter Wheel #1 Position ---------- (1) Ground quartz diffuser (ND=2.32)
Filter Wheel #2 Position ---------- 



************************************************************
HL scan start time = 14:21:35
Dark Count =  3.5 


Time (GMT)  Wavelength (Ang)  Step Number  Raw Counts  Counts/Second

  863.03        3331.00           6616         163.00       695.31
  864.06        3331.25           6620         120.00       507.85
  864.09        3331.50           6623         145.00       616.84
  864.11        3331.75           6627         127.00       538.37
  864.14        3332.00           6631         150.00       638.64
  864.17        3332.25           6635         154.00       656.07
  864.20        3332.50           6638         135.00       573.25
  864.23        3332.75           6642         132.00       560.17
  864.26        3333.00           6646         137.00       581.96
  864.28        3333.25           6649         127.00       538.37
  864.31        3333.50           6653         149.00       634.28
  864.34        3333.75           6657         144.00       612.48
  864.37        3334.00           6661         147.00       625.56
  864.40        3334.25           6664         126.00       534.01
  864.42        3334.50           6668         143.00       608.12
  864.45        3334.75           6672         133.00       564.53
  864.48        3335.00           6676         157.00       669.15
  864.50        3335.25           6679         170.00       725.82
  864.53        3335.50           6683         177.00       756.34
  864.56        3335.75           6687         257.00      1105.10
  864.59        3336.00           6691         815.00      3537.89
  864.62        3336.25           6694        1887.00      8212.71
  864.65        3336.50           6698        4132.00     18007.32
  864.68        3336.75           6702        7305.00     31861.15
  864.70        3337.00           6706       10119.00     44157.82
  864.73        3337.25           6709       12440.00     54307.47
  864.76        3337.50           6713       15440.00     67436.13
  864.79        3337.75           6717       18582.00     81198.07
  864.82        3338.00           6721       21559.00     94248.52
  864.84        3338.25           6724       23899.00    104514.20
  864.87        3338.50           6728       27112.00    118620.70
  864.90        3338.75           6732       30030.00    131443.20
  864.93        3339.00           6736       33257.00    145635.70
  864.95        3339.25           6739       35530.00    155640.30
  864.99        3339.50           6743       38879.00    170392.50
  865.01        3339.75           6747       41818.00    183350.30
  865.04        3340.00           6751       44915.00    197016.30
  865.07        3340.25           6754       47430.00    208123.00
  865.09        3340.50           6758       50742.00    222761.50
  865.12        3340.75           6762       53572.00    235280.50
  865.15        3341.00           6766       55513.00    243872.70
  865.18        3341.25           6769       56603.00    248699.80
  865.21        3341.50           6773       57483.00    252598.10
  865.23        3341.75           6777       56912.00    250068.60
  865.26        3342.00           6781       55264.00    242770.20
  865.29        3342.25           6784       53225.00    233744.90
  865.31        3342.50           6788       50495.00    221669.30
  865.34        3342.75           6792       47513.00    208489.70
  865.37        3343.00           6795       44942.00    197135.50
  865.40        3343.25           6799       41919.00    183795.80
  865.43        3343.50           6803       38710.00    169647.80
  865.45        3343.75           6807       35805.00    156851.10
  865.48        3344.00           6811       32532.00    142446.00
  865.51        3344.25           6814       30293.00    132599.40
  865.54        3344.50           6818       27458.00    120140.60
  865.57        3344.75           6822       24130.00    105527.90
  865.60        3345.00           6826       21223.00     92775.02
  865.63        3345.25           6829       18709.00     81754.59
  865.66        3345.50           6833       15193.00     66354.78
  865.68        3345.75           6837       11904.00     51962.97
  865.71        3346.00           6841        8550.00     37300.38
  865.74        3346.25           6844        6087.00     26541.72
  865.77        3346.50           6848        3344.00     14568.69
  865.80        3346.75           6852        1477.00      6424.60
  865.83        3347.00           6856         587.00      2543.80
  865.85        3347.25           6859         308.00      1327.43
  865.88        3347.50           6863         207.00       887.12
  865.91        3347.75           6867         164.00       699.67
  865.94        3348.00           6871         152.00       647.35
  865.96        3348.25           6874         142.00       603.76
  865.99        3348.50           6878         131.00       555.81
  866.02        3348.75           6882         162.00       690.95
  866.05        3349.00           6886         140.00       595.04
  866.07        3349.25           6889         144.00       612.48
  866.10        3349.50           6893         140.00       595.04
  866.13        3349.75           6897         128.00       542.73
  866.16        3350.00           6901         134.00       568.89
  866.18        3350.25           6904         147.00       625.56
  866.22        3350.50           6908         144.00       612.48
  866.24        3350.75           6912         171.00       730.18
  866.27        3351.00           6916         146.00       621.20
HL scan finished at 14:28:12
end
