************************************************************
  HL Scan of (1) Internal mercury lamp
************************************************************
Integration time is 0.2294 seconds per sample
dh080619El Arenosillo 37.1 6.73 2.86pr1000
************************************************************
Dead Time -------------------------  3.2E-08 
Number of Cycles Used -------------  4 
Starting Wavelength (Angstroms) ---  3331 
Final Wavelength (Angstoms) -------  3351 
Wavelength Increment (Angstroms) --  .25 
Filter Wheel #1 Position ---------- (1) Ground quartz diffuser (ND=2.32)
Filter Wheel #2 Position ---------- 



************************************************************
HL scan start time = 01:20:26
Dark Count =  .6 


Time (GMT)  Wavelength (Ang)  Step Number  Raw Counts  Counts/Second

   81.87        3331.00           6616         157.00       681.79
   82.91        3331.25           6620         116.00       503.06
   82.94        3331.50           6623         117.00       507.42
   82.97        3331.75           6627         110.00       476.90
   83.00        3332.00           6631         112.00       485.62
   83.03        3332.25           6635         117.00       507.42
   83.06        3332.50           6638         134.00       581.53
   83.08        3332.75           6642          93.00       402.80
   83.10        3333.00           6646         132.00       572.81
   83.14        3333.25           6649         139.00       603.32
   83.16        3333.50           6653         141.00       612.04
   83.19        3333.75           6657         140.00       607.68
   83.22        3334.00           6661         141.00       612.04
   83.25        3334.25           6664         124.00       537.93
   83.28        3334.50           6668         146.00       633.84
   83.31        3334.75           6672         155.00       673.07
   83.34        3335.00           6676         170.00       738.47
   83.37        3335.25           6679         216.00       939.00
   83.40        3335.50           6683         252.00      1095.94
   83.43        3335.75           6687         289.00      1257.24
   83.45        3336.00           6691         910.00      3964.76
   83.49        3336.25           6694        2594.00     11309.24
   83.51        3336.50           6698        7704.00     33616.79
   83.54        3336.75           6702       14510.00     63377.75
   83.57        3337.00           6706       21569.00     94305.09
   83.60        3337.25           6709       26741.00    117004.00
   83.63        3337.50           6713       33759.00    147857.50
   83.66        3337.75           6717       40675.00    178322.40
   83.69        3338.00           6721       47384.00    207932.60
   83.72        3338.25           6724       52744.00    231629.50
   83.75        3338.50           6728       59699.00    262431.80
   83.78        3338.75           6732       66835.00    294099.20
   83.81        3339.00           6736       74678.00    328978.70
   83.85        3339.25           6739       79951.00    352472.90
   83.87        3339.50           6743       88164.00    389137.40
   83.90        3339.75           6747       96174.00    424979.20
   83.93        3340.00           6751      103776.00    459072.20
   83.96        3340.25           6754      109177.00    483339.80
   83.99        3340.50           6758      116128.00    514627.90
   84.02        3340.75           6762      122161.00    541835.10
   84.04        3341.00           6766      128343.00    569764.00
   84.08        3341.25           6769      131017.00    581860.10
   84.10        3341.50           6773      131824.00    585512.60
   84.13        3341.75           6777      130828.00    581004.90
   84.16        3342.00           6781      126640.00    562065.10
   84.19        3342.25           6784      121654.00    539546.80
   84.22        3342.50           6788      114751.00    508424.70
   84.25        3342.75           6792      107933.00    477746.90
   84.28        3343.00           6795      102813.00    454749.20
   84.31        3343.25           6799       95456.00    421763.10
   84.34        3343.50           6803       87501.00    386174.40
   84.37        3343.75           6807       80357.00    354283.30
   84.40        3344.00           6811       72843.00    320811.00
   84.43        3344.25           6814       67743.00    298133.30
   84.46        3344.50           6818       59840.00    263056.90
   84.49        3344.75           6822       52480.00    230461.50
   84.52        3345.00           6826       45110.00    197890.00
   84.55        3345.25           6829       39539.00    173314.30
   84.58        3345.50           6833       32111.00    140606.80
   84.61        3345.75           6837       24895.00    108898.40
   84.64        3346.00           6841       17396.00     76014.68
   84.67        3346.25           6844       12113.00     52889.80
   84.70        3346.50           6848        6067.00     26467.05
   84.73        3346.75           6852        2082.00      9075.87
   84.75        3347.00           6856         618.00      2691.60
   84.79        3347.25           6859         353.00      1536.26
   84.81        3347.50           6863         253.00      1100.30
   84.84        3347.75           6867         207.00       899.76
   84.87        3348.00           6871         171.00       742.82
   84.91        3348.25           6874         167.00       725.39
   84.93        3348.50           6878         151.00       655.64
   84.96        3348.75           6882         153.00       664.36
   84.99        3349.00           6886         156.00       677.43
   85.02        3349.25           6889         193.00       838.73
   85.05        3349.50           6893         138.00       598.97
   85.08        3349.75           6897         130.00       564.09
   85.11        3350.00           6901         174.00       755.90
   85.14        3350.25           6904         146.00       633.84
   85.17        3350.50           6908         153.00       664.36
   85.20        3350.75           6912         136.00       590.25
   85.22        3351.00           6916         132.00       572.81
HL scan finished at 01:27:10
end
