************************************************************
  HL Scan of (1) Internal mercury lamp
************************************************************
Integration time is 0.2294 seconds per sample
dh080618El Arenosillo 37.1 6.73 2.8pr1000
************************************************************
Dead Time -------------------------  3.2E-08 
Number of Cycles Used -------------  4 
Starting Wavelength (Angstroms) ---  3331 
Final Wavelength (Angstoms) -------  3351 
Wavelength Increment (Angstroms) --  .25 
Filter Wheel #1 Position ---------- (1) Ground quartz diffuser (ND=2.32)
Filter Wheel #2 Position ---------- 



************************************************************
HL scan start time = 01:24:30
Dark Count =  .3 


Time (GMT)  Wavelength (Ang)  Step Number  Raw Counts  Counts/Second

   85.94        3331.00           6616         154.00       670.02
   86.97        3331.25           6620         142.00       617.71
   87.00        3331.50           6623         143.00       622.07
   87.03        3331.75           6627         165.00       717.98
   87.06        3332.00           6631         161.00       700.54
   87.09        3332.25           6635         145.00       630.79
   87.12        3332.50           6638         145.00       630.79
   87.15        3332.75           6642         148.00       643.87
   87.18        3333.00           6646         140.00       608.99
   87.21        3333.25           6649         136.00       591.55
   87.23        3333.50           6653         152.00       661.30
   87.27        3333.75           6657         144.00       626.43
   87.30        3334.00           6661         154.00       670.02
   87.32        3334.25           6664         175.00       761.57
   87.36        3334.50           6668         181.00       787.73
   87.38        3334.75           6672         206.00       896.71
   87.41        3335.00           6676         230.00      1001.34
   87.44        3335.25           6679         267.00      1162.64
   87.47        3335.50           6683         341.00      1485.25
   87.49        3335.75           6687         861.00      3752.41
   87.52        3336.00           6691        3134.00     13666.39
   87.56        3336.25           6694        7478.00     32630.83
   87.58        3336.50           6698       15987.00     69845.13
   87.61        3336.75           6702       25589.00    111946.50
   87.65        3337.00           6706       35434.00    155231.70
   87.67        3337.25           6709       42716.00    187325.70
   87.70        3337.50           6713       51801.00    227459.10
   87.73        3337.75           6717       60413.00    265598.70
   87.76        3338.00           6721       69874.00    307606.40
   87.79        3338.25           6724       76288.00    336149.80
   87.82        3338.50           6728       85169.00    375758.50
   87.86        3338.75           6732       94129.00    415822.00
   87.88        3339.00           6736      104178.00    460878.50
   87.91        3339.25           6739      111119.00    492076.20
   87.95        3339.50           6743      120352.00    533673.30
   87.97        3339.75           6747      129555.00    575246.90
   88.00        3340.00           6751      138610.00    616261.00
   88.03        3340.25           6754      144959.00    645083.50
   88.06        3340.50           6758      153537.00    684110.30
   88.09        3340.75           6762      160694.00    716747.90
   88.12        3341.00           6766      165895.00    740509.00
   88.15        3341.25           6769      168304.00    751527.00
   88.18        3341.50           6773      167931.00    749820.50
   88.21        3341.75           6777      164821.00    735599.30
   88.24        3342.00           6781      157488.00    702119.30
   88.27        3342.25           6784      150455.00    670077.10
   88.30        3342.50           6788      141304.00    628484.30
   88.32        3342.75           6792      131454.00    583839.30
   88.36        3343.00           6795      124322.00    551593.70
   88.39        3343.25           6799      115127.00    510119.60
   88.42        3343.50           6803      106296.00    470391.60
   88.45        3343.75           6807       96791.00    427744.90
   88.48        3344.00           6811       83465.00    368150.80
   88.51        3344.25           6814       80902.00    356715.30
   88.54        3344.50           6818       72161.00    317777.90
   88.57        3344.75           6822       62602.00    275308.00
   88.60        3345.00           6826       53437.00    234697.20
   88.63        3345.25           6829       46323.00    203247.40
   88.66        3345.50           6833       37059.00    162387.90
   88.69        3345.75           6837       28036.00    122693.90
   88.72        3346.00           6841       18279.00     79884.41
   88.75        3346.25           6844       11985.00     52331.24
   88.78        3346.50           6848        5558.00     24245.92
   88.81        3346.75           6852        1669.00      7275.89
   88.84        3347.00           6856         529.00      2304.88
   88.87        3347.25           6859         352.00      1533.21
   88.89        3347.50           6863         274.00      1193.16
   88.92        3347.75           6867         217.00       944.67
   88.96        3348.00           6871         205.00       892.35
   88.98        3348.25           6874         203.00       883.63
   89.01        3348.50           6878         173.00       752.85
   89.04        3348.75           6882         178.00       774.65
   89.07        3349.00           6886         165.00       717.98
   89.10        3349.25           6889         171.00       744.13
   89.12        3349.50           6893         166.00       722.34
   89.15        3349.75           6897         171.00       744.13
   89.18        3350.00           6901         170.00       739.77
   89.20        3350.25           6904         179.00       779.01
   89.24        3350.50           6908         172.00       748.49
   89.26        3350.75           6912         178.00       774.65
   89.29        3351.00           6916         179.00       779.01
HL scan finished at 01:31:14
end
