************************************************************
  HL Scan of (1) Internal mercury lamp
************************************************************
Integration time is 0.2294 seconds per sample
dh080617El Arenosillo 37.1 6.73 2.98pr1000
************************************************************
Dead Time -------------------------  3.2E-08 
Number of Cycles Used -------------  4 
Starting Wavelength (Angstroms) ---  3331 
Final Wavelength (Angstoms) -------  3351 
Wavelength Increment (Angstroms) --  .25 
Filter Wheel #1 Position ---------- (1) Ground quartz diffuser (ND=2.32)
Filter Wheel #2 Position ---------- 



************************************************************
HL scan start time = 01:23:07
Dark Count =  .5 


Time (GMT)  Wavelength (Ang)  Step Number  Raw Counts  Counts/Second

   84.57        3331.00           6616         258.00      1122.53
   85.61        3331.25           6620         282.00      1227.16
   85.63        3331.50           6623         289.00      1257.68
   85.67        3331.75           6627         245.00      1065.86
   85.69        3332.00           6631         267.00      1161.77
   85.72        3332.25           6635         285.00      1240.24
   85.75        3332.50           6638         260.00      1131.25
   85.78        3332.75           6642         273.00      1187.93
   85.81        3333.00           6646         244.00      1061.50
   85.84        3333.25           6649         283.00      1231.52
   85.87        3333.50           6653         248.00      1078.94
   85.90        3333.75           6657         271.00      1179.21
   85.93        3334.00           6661         296.00      1288.20
   85.96        3334.25           6664         277.00      1205.36
   85.99        3334.50           6668         282.00      1227.16
   86.02        3334.75           6672         323.00      1405.90
   86.05        3335.00           6676         356.00      1549.77
   86.08        3335.25           6679         387.00      1684.92
   86.11        3335.50           6683         550.00      2395.56
   86.14        3335.75           6687         879.00      3830.02
   86.16        3336.00           6691        2976.00     12976.18
   86.20        3336.25           6694        6869.00     29969.88
   86.23        3336.50           6698       16651.00     72752.00
   86.26        3336.75           6702       29684.00    129935.40
   86.29        3337.00           6706       43182.00    189380.90
   86.32        3337.25           6709       53812.00    236355.90
   86.35        3337.50           6713       67416.00    296680.80
   86.38        3337.75           6717       80662.00    355644.00
   86.41        3338.00           6721       94143.00    415883.90
   86.44        3338.25           6724      104118.00    460608.20
   86.47        3338.50           6728      116798.00    517647.50
   86.50        3338.75           6732      130180.00    578073.40
   86.53        3339.00           6736      144279.00    641993.00
   86.56        3339.25           6739      154678.00    689308.10
   86.59        3339.50           6743      168611.00    752930.80
   86.62        3339.75           6747      182563.00    816904.00
   86.66        3340.00           6751      195707.00    877416.20
   86.68        3340.25           6754      206209.00    925936.70
   86.71        3340.50           6758      218808.00    984348.20
   86.75        3340.75           6762      231912.00   1045337.00
   86.77        3341.00           6766      241142.00   1088441.00
   86.80        3341.25           6769      245352.00   1108143.00
   86.83        3341.50           6773      247388.00   1117679.00
   86.86        3341.75           6777      245330.00   1108040.00
   86.89        3342.00           6781      237853.00   1073068.00
   86.92        3342.25           6784      229468.00   1033944.00
   86.95        3342.50           6788      216949.00    975715.40
   86.98        3342.75           6792      203586.00    913803.80
   87.01        3343.00           6795      193109.00    865436.80
   87.04        3343.25           6799      179760.00    804030.30
   87.06        3343.50           6803      166267.00    742208.90
   87.10        3343.75           6807      152548.00    679604.80
   87.12        3344.00           6811      138972.00    617902.10
   87.15        3344.25           6814      130265.00    578457.90
   87.18        3344.50           6818      116102.00    514511.20
   87.21        3344.75           6822      101670.00    449620.20
   87.24        3345.00           6826       87384.00    385652.00
   87.28        3345.25           6829       76300.00    336202.30
   87.30        3345.50           6833       62226.00    273639.00
   87.33        3345.75           6837       47984.00    210583.90
   87.37        3346.00           6841       33408.00    146313.40
   87.39        3346.25           6844       23680.00    103566.30
   87.42        3346.50           6848       12712.00     55510.46
   87.46        3346.75           6852        5074.00     22132.06
   87.49        3347.00           6856        1624.00      7078.76
   87.51        3347.25           6859         789.00      3437.61
   87.55        3347.50           6863         515.00      2242.97
   87.57        3347.75           6867         441.00      1920.34
   87.60        3348.00           6871         374.00      1628.25
   87.64        3348.25           6874         385.00      1676.20
   87.66        3348.50           6878         334.00      1453.86
   87.69        3348.75           6882         311.00      1353.59
   87.72        3349.00           6886         305.00      1327.43
   87.75        3349.25           6889         297.00      1292.56
   87.77        3349.50           6893         283.00      1231.52
   87.81        3349.75           6897         291.00      1266.40
   87.84        3350.00           6901         289.00      1257.68
   87.86        3350.25           6904         283.00      1231.52
   87.90        3350.50           6908         309.00      1344.87
   87.92        3350.75           6912         310.00      1349.23
   87.95        3351.00           6916         277.00      1205.36
HL scan finished at 01:29:54
end
