************************************************************
  HL Scan of (1) Internal mercury lamp
************************************************************
Integration time is 0.2294 seconds per sample
dh010619El Arenosillo 37.1 6.73 2.92pr1000
************************************************************
Dead Time -------------------------  3.2E-08 
Number of Cycles Used -------------  4 
Starting Wavelength (Angstroms) ---  3331 
Final Wavelength (Angstoms) -------  3351 
Wavelength Increment (Angstroms) --  .25 
Filter Wheel #1 Position ---------- (1) Ground quartz diffuser (ND=2.32)
Filter Wheel #2 Position ---------- 



************************************************************
HL scan start time = 01:20:32
Dark Count =  .4 


Time (GMT)  Wavelength (Ang)  Step Number  Raw Counts  Counts/Second

   81.97        3331.00           6616         138.00       599.84
   83.01        3331.25           6620         138.00       599.84
   83.03        3331.50           6623         139.00       604.20
   83.06        3331.75           6627         137.00       595.48
   83.09        3332.00           6631         119.00       517.01
   83.12        3332.25           6635         147.00       639.07
   83.15        3332.50           6638         117.00       508.29
   83.18        3332.75           6642         132.00       573.68
   83.20        3333.00           6646         144.00       625.99
   83.24        3333.25           6649         136.00       591.12
   83.27        3333.50           6653         124.00       538.81
   83.29        3333.75           6657         149.00       647.79
   83.32        3334.00           6661         155.00       673.95
   83.35        3334.25           6664         168.00       730.62
   83.38        3334.50           6668         156.00       678.31
   83.41        3334.75           6672         166.00       721.90
   83.44        3335.00           6676         187.00       813.45
   83.47        3335.25           6679         216.00       939.87
   83.50        3335.50           6683         276.00      1201.44
   83.52        3335.75           6687         488.00      2125.69
   83.55        3336.00           6691        1843.00      8034.32
   83.59        3336.25           6694        4602.00     20072.17
   83.61        3336.50           6698       10862.00     47419.77
   83.64        3336.75           6702       18328.00     80098.68
   83.67        3337.00           6706       25898.00    113302.80
   83.70        3337.25           6709       31571.00    138232.60
   83.73        3337.50           6713       38633.00    169322.10
   83.76        3337.75           6717       45512.00    199665.70
   83.79        3338.00           6721       52859.00    232139.20
   83.82        3338.25           6724       58369.00    256537.70
   83.85        3338.50           6728       65957.00    290200.30
   83.88        3338.75           6732       73510.00    323780.30
   83.91        3339.00           6736       81637.00    359993.40
   83.93        3339.25           6739       87300.00    385277.10
   83.96        3339.50           6743       95172.00    420492.00
   83.99        3339.75           6747      102678.00    454144.20
   84.02        3340.00           6751      110890.00    491045.50
   84.05        3340.25           6754      115961.00    513876.30
   84.08        3340.50           6758      123729.00    548915.10
   84.11        3340.75           6762      129910.00    576852.30
   84.14        3341.00           6766      134393.00    597146.30
   84.17        3341.25           6769      136665.00    607441.50
   84.19        3341.50           6773      136471.00    606562.10
   84.22        3341.75           6777      134521.00    597726.10
   84.26        3342.00           6781      129487.00    574938.80
   84.28        3342.25           6784      124270.00    551358.30
   84.31        3342.50           6788      116962.00    518387.10
   84.34        3342.75           6792      110654.00    489983.80
   84.37        3343.00           6795      104805.00    463693.60
   84.40        3343.25           6799       97086.00    429066.30
   84.42        3343.50           6803       89030.00    393009.30
   84.45        3343.75           6807       80664.00    355653.30
   84.49        3344.00           6811       72919.00    321150.10
   84.51        3344.25           6814       67726.00    298058.60
   84.54        3344.50           6818       60098.00    264201.60
   84.57        3344.75           6822       52153.00    229015.70
   84.60        3345.00           6826       44563.00    195476.10
   84.63        3345.25           6829       38486.00    168674.40
   84.65        3345.50           6833       30663.00    134239.80
   84.69        3345.75           6837       22804.00     99723.12
   84.72        3346.00           6841       15046.00     65724.84
   84.74        3346.25           6844        9634.00     42051.32
   84.77        3346.50           6848        4053.00     17676.08
   84.81        3346.75           6852        1246.00      5430.76
   84.84        3347.00           6856         485.00      2112.61
   84.86        3347.25           6859         293.00      1275.55
   84.89        3347.50           6863         218.00       948.59
   84.92        3347.75           6867         181.00       787.29
   84.95        3348.00           6871         167.00       726.26
   84.98        3348.25           6874         161.00       700.10
   85.00        3348.50           6878         179.00       778.57
   85.04        3348.75           6882         154.00       669.59
   85.07        3349.00           6886         150.00       652.15
   85.09        3349.25           6889         167.00       726.26
   85.12        3349.50           6893         146.00       634.71
   85.16        3349.75           6897         136.00       591.12
   85.18        3350.00           6901         122.00       530.09
   85.21        3350.25           6904         138.00       599.84
   85.24        3350.50           6908         153.00       665.23
   85.27        3350.75           6912         144.00       625.99
   85.30        3351.00           6916         141.00       612.92
HL scan finished at 01:27:14
end
