************************************************************
  HL Scan of (1) Internal mercury lamp
************************************************************
Integration time is 0.2294 seconds per sample
dh010617El Arenosillo 37.1 6.73 3.03pr1000
************************************************************
Dead Time -------------------------  3.2E-08 
Number of Cycles Used -------------  4 
Starting Wavelength (Angstroms) ---  3331 
Final Wavelength (Angstoms) -------  3351 
Wavelength Increment (Angstroms) --  .25 
Filter Wheel #1 Position ---------- (1) Ground quartz diffuser (ND=2.32)
Filter Wheel #2 Position ---------- 



************************************************************
HL scan start time = 01:19:55
Dark Count =  .7 


Time (GMT)  Wavelength (Ang)  Step Number  Raw Counts  Counts/Second

   81.38        3331.00           6616         106.00       459.03
   82.41        3331.25           6620          92.00       398.00
   82.44        3331.50           6623         112.00       485.19
   82.47        3331.75           6627          94.00       406.72
   82.50        3332.00           6631         101.00       437.23
   82.53        3332.25           6635         102.00       441.59
   82.55        3332.50           6638         101.00       437.23
   82.59        3332.75           6642         100.00       432.87
   82.62        3333.00           6646          90.00       389.28
   82.64        3333.25           6649         101.00       437.23
   82.67        3333.50           6653         106.00       459.03
   82.70        3333.75           6657          98.00       424.16
   82.73        3334.00           6661         118.00       511.34
   82.76        3334.25           6664         119.00       515.70
   82.79        3334.50           6668         110.00       476.47
   82.82        3334.75           6672         139.00       602.89
   82.85        3335.00           6676         147.00       637.76
   82.87        3335.25           6679         152.00       659.56
   82.91        3335.50           6683         174.00       755.47
   82.94        3335.75           6687         256.00      1112.94
   82.96        3336.00           6691         917.00      3994.84
   82.99        3336.25           6694        2128.00      9276.08
   83.02        3336.50           6698        4768.00     20795.44
   83.05        3336.75           6702        8123.00     35446.90
   83.08        3337.00           6706       11541.00     50387.64
   83.11        3337.25           6709       14117.00     61657.28
   83.14        3337.50           6713       17978.00     78563.88
   83.16        3337.75           6717       21486.00     93940.65
   83.19        3338.00           6721       25151.00    110021.80
   83.23        3338.25           6724       27880.00    122006.80
   83.25        3338.50           6728       31602.00    138367.60
   83.28        3338.75           6732       35221.00    154292.20
   83.31        3339.00           6736       39254.00    172057.60
   83.34        3339.25           6739       41911.00    183772.80
   83.37        3339.50           6743       45699.00    200490.10
   83.40        3339.75           6747       49613.00    217782.30
   83.43        3340.00           6751       53061.00    233031.60
   83.46        3340.25           6754       55864.00    245439.30
   83.49        3340.50           6758       59654.00    262231.80
   83.52        3340.75           6762       62632.00    275439.30
   83.55        3341.00           6766       64697.00    284604.20
   83.58        3341.25           6769       66136.00    290994.00
   83.61        3341.50           6773       66188.00    291224.90
   83.63        3341.75           6777       65452.00    287956.40
   83.67        3342.00           6781       63446.00    279051.40
   83.70        3342.25           6784       61070.00    268510.50
   83.72        3342.50           6788       57505.00    252708.00
   83.75        3342.75           6792       54255.00    238315.80
   83.79        3343.00           6795       51036.00    224074.00
   83.81        3343.25           6799       47112.00    206730.60
   83.84        3343.50           6803       43382.00    190262.60
   83.87        3343.75           6807       39577.00    173481.30
   83.91        3344.00           6811       35816.00    156911.90
   83.93        3344.25           6814       33243.00    145586.40
   83.96        3344.50           6818       29679.00    129912.60
   83.99        3344.75           6822       26054.00    113986.50
   84.03        3345.00           6826       22238.00     97238.90
   84.05        3345.25           6829       19496.00     85215.93
   84.08        3345.50           6833       15931.00     69598.16
   84.11        3345.75           6837       12202.00     53278.64
   84.14        3346.00           6841        8339.00     36390.65
   84.17        3346.25           6844        5783.00     25226.54
   84.20        3346.50           6848        2834.00     12355.80
   84.23        3346.75           6852        1105.00      4814.60
   84.26        3347.00           6856         402.00      1749.44
   84.29        3347.25           6859         250.00      1086.79
   84.31        3347.50           6863         158.00       685.72
   84.35        3347.75           6867         130.00       563.65
   84.38        3348.00           6871         140.00       607.25
   84.40        3348.25           6874         113.00       489.55
   84.43        3348.50           6878         108.00       467.75
   84.46        3348.75           6882         123.00       533.14
   84.49        3349.00           6886         110.00       476.47
   84.52        3349.25           6889         106.00       459.03
   84.55        3349.50           6893         106.00       459.03
   84.58        3349.75           6897         108.00       467.75
   84.61        3350.00           6901         113.00       489.55
   84.64        3350.25           6904         134.00       581.09
   84.67        3350.50           6908         102.00       441.59
   84.70        3350.75           6912         100.00       432.87
   84.72        3351.00           6916         122.00       528.78
HL scan finished at 01:26:40
end
************************************************************
  HL Scan of (1) Internal mercury lamp
************************************************************
Integration time is 0.2294 seconds per sample
dh010617El Arenosillo 37.1 6.73 3.07pr1000
************************************************************
Dead Time -------------------------  3.2E-08 
Number of Cycles Used -------------  4 
Starting Wavelength (Angstroms) ---  3331 
Final Wavelength (Angstoms) -------  3351 
Wavelength Increment (Angstroms) --  .25 
Filter Wheel #1 Position ---------- (1) Ground quartz diffuser (ND=2.32)
Filter Wheel #2 Position ---------- 



************************************************************
HL scan start time = 02:26:59
Dark Count =  1 


Time (GMT)  Wavelength (Ang)  Step Number  Raw Counts  Counts/Second

  148.44        3331.00           6616         118.00       510.03
  149.48        3331.25           6620         108.00       466.44
  149.50        3331.50           6623         102.00       440.29
  149.53        3331.75           6627          91.00       392.33
  149.56        3332.00           6631          95.00       409.77
  149.59        3332.25           6635         122.00       527.47
  149.62        3332.50           6638         103.00       444.64
  149.65        3332.75           6642         120.00       518.75
  149.68        3333.00           6646         105.00       453.36
  149.71        3333.25           6649          98.00       422.85
  149.73        3333.50           6653         109.00       470.80
  149.77        3333.75           6657          93.00       401.05
  149.80        3334.00           6661         105.00       453.36
  149.82        3334.25           6664          99.00       427.21
  149.85        3334.50           6668         120.00       518.75
  149.88        3334.75           6672         134.00       579.78
  149.91        3335.00           6676         134.00       579.78
  149.94        3335.25           6679         138.00       597.22
  149.97        3335.50           6683         166.00       719.28
  150.00        3335.75           6687         268.00      1163.95
  150.03        3336.00           6691         933.00      4063.30
  150.06        3336.25           6694        2211.00      9636.80
  150.09        3336.50           6698        5148.00     22452.92
  150.12        3336.75           6702        8707.00     37997.35
  150.14        3337.00           6706       11979.00     52301.94
  150.17        3337.25           6709       14588.00     63717.40
  150.20        3337.50           6713       18119.00     79180.33
  150.22        3337.75           6717       21603.00     94452.46
  150.25        3338.00           6721       25235.00    110389.30
  150.28        3338.25           6724       28091.00    122932.50
  150.32        3338.50           6728       31405.00    137499.90
  150.34        3338.75           6732       34985.00    153251.90
  150.37        3339.00           6736       38607.00    169204.90
  150.40        3339.25           6739       41313.00    181134.10
  150.44        3339.50           6743       44861.00    196789.00
  150.46        3339.75           6747       48498.00    212852.90
  150.49        3340.00           6751       52024.00    228442.50
  150.51        3340.25           6754       54945.00    241368.90
  150.55        3340.50           6758       58542.00    257301.70
  150.58        3340.75           6762       61772.00    271622.70
  150.60        3341.00           6766       64469.00    283590.70
  150.63        3341.25           6769       65590.00    288567.90
  150.66        3341.50           6773       66188.00    291223.60
  150.69        3341.75           6777       65270.00    287147.00
  150.72        3342.00           6781       63393.00    278814.90
  150.75        3342.25           6784       60806.00    267338.30
  150.78        3342.50           6788       57666.00    253419.90
  150.81        3342.75           6792       53940.00    236920.20
  150.83        3343.00           6795       51469.00    225987.60
  150.86        3343.25           6799       47771.00    209640.60
  150.90        3343.50           6803       44330.00    194445.00
  150.92        3343.75           6807       40379.00    177015.60
  150.95        3344.00           6811       36775.00    161133.90
  150.98        3344.25           6814       34093.00    149325.60
  151.01        3344.50           6818       30906.00    135305.60
  151.04        3344.75           6822       27400.00    119896.80
  151.07        3345.00           6826       23539.00    102945.40
  151.10        3345.25           6829       20697.00     90479.55
  151.13        3345.50           6833       16960.00     74103.16
  151.16        3345.75           6837       12873.00     56212.62
  151.19        3346.00           6841        9114.00     39775.97
  151.22        3346.25           6844        6274.00     27369.21
  151.25        3346.50           6848        3140.00     13689.52
  151.27        3346.75           6852        1232.00      5367.09
  151.30        3347.00           6856         432.00      1878.93
  151.33        3347.25           6859         237.00      1028.80
  151.36        3347.50           6863         163.00       706.21
  151.39        3347.75           6867         132.00       571.07
  151.42        3348.00           6871         157.00       680.05
  151.45        3348.25           6874         131.00       566.71
  151.48        3348.50           6878         109.00       470.80
  151.51        3348.75           6882         107.00       462.08
  151.53        3349.00           6886         110.00       475.16
  151.56        3349.25           6889         122.00       527.47
  151.59        3349.50           6893         105.00       453.36
  151.62        3349.75           6897          95.00       409.77
  151.65        3350.00           6901         106.00       457.72
  151.68        3350.25           6904         103.00       444.64
  151.71        3350.50           6908          98.00       422.85
  151.73        3350.75           6912         112.00       483.88
  151.76        3351.00           6916         123.00       531.83
HL scan finished at 02:33:42
end
************************************************************
  HL Scan of (1) Internal mercury lamp
************************************************************
Integration time is 0.2294 seconds per sample
dh010617El Arenosillo 37.1 6.73 3.31pr1000
************************************************************
Dead Time -------------------------  3.2E-08 
Number of Cycles Used -------------  4 
Starting Wavelength (Angstroms) ---  3331 
Final Wavelength (Angstoms) -------  3351 
Wavelength Increment (Angstroms) --  .25 
Filter Wheel #1 Position ---------- (1) Ground quartz diffuser (ND=2.32)
Filter Wheel #2 Position ---------- 



************************************************************
HL scan start time = 20:32:19
Dark Count =  1.8 


Time (GMT)  Wavelength (Ang)  Step Number  Raw Counts  Counts/Second

 1233.78        3331.00           6616          87.00       371.41
 1234.82        3331.25           6620          99.00       423.72
 1234.85        3331.50           6623         103.00       441.16
 1234.87        3331.75           6627         114.00       489.11
 1234.90        3332.00           6631         116.00       497.83
 1234.93        3332.25           6635         114.00       489.11
 1234.96        3332.50           6638          93.00       397.56
 1234.99        3332.75           6642         112.00       480.39
 1235.02        3333.00           6646          90.00       384.49
 1235.05        3333.25           6649         113.00       484.75
 1235.07        3333.50           6653          92.00       393.20
 1235.10        3333.75           6657         103.00       441.16
 1235.14        3334.00           6661         114.00       489.11
 1235.16        3334.25           6664         105.00       449.88
 1235.19        3334.50           6668         127.00       545.78
 1235.22        3334.75           6672         146.00       628.61
 1235.25        3335.00           6676         128.00       550.14
 1235.28        3335.25           6679         138.00       593.73
 1235.31        3335.50           6683         156.00       672.20
 1235.33        3335.75           6687         200.00       864.02
 1235.36        3336.00           6691         630.00      2738.69
 1235.39        3336.25           6694        1582.00      6889.92
 1235.42        3336.50           6698        3946.00     17203.02
 1235.45        3336.75           6702        7045.00     30732.92
 1235.48        3337.00           6706       10321.00     45048.33
 1235.50        3337.25           6709       13010.00     56808.50
 1235.53        3337.50           6713       16384.00     71577.01
 1235.56        3337.75           6717       19699.00     86100.89
 1235.59        3338.00           6721       23308.00    101928.30
 1235.62        3338.25           6724       25743.00    112616.10
 1235.65        3338.50           6728       29519.00    129204.40
 1235.68        3338.75           6732       33070.00    144820.40
 1235.70        3339.00           6736       36558.00    160174.60
 1235.74        3339.25           6739       39322.00    172352.50
 1235.77        3339.50           6743       42957.00    188382.40
 1235.80        3339.75           6747       46491.00    203982.80
 1235.82        3340.00           6751       50096.00    219912.70
 1235.85        3340.25           6754       52597.00    230973.80
 1235.88        3340.50           6758       56186.00    246860.50
 1235.91        3340.75           6762       59520.00    261632.90
 1235.94        3341.00           6766       61970.00    272497.50
 1235.97        3341.25           6769       63395.00    278820.10
 1235.99        3341.50           6773       63614.00    279792.10
 1236.02        3341.75           6777       63403.00    278855.70
 1236.05        3342.00           6781       61717.00    271375.20
 1236.08        3342.25           6784       59693.00    262399.90
 1236.11        3342.50           6788       56676.00    249030.70
 1236.14        3342.75           6792       53101.00    233203.70
 1236.16        3343.00           6795       50114.00    219992.30
 1236.20        3343.25           6799       46506.00    204049.00
 1236.23        3343.50           6803       42858.00    187945.60
 1236.25        3343.75           6807       39237.00    171977.90
 1236.28        3344.00           6811       35358.00    154890.50
 1236.31        3344.25           6814       32591.00    142713.00
 1236.34        3344.50           6818       29314.00    128303.40
 1236.37        3344.75           6822       25707.00    112458.00
 1236.40        3345.00           6826       22182.00     96988.44
 1236.43        3345.25           6829       19635.00     85820.36
 1236.46        3345.50           6833       15966.00     69746.60
 1236.48        3345.75           6837       12400.00     54139.93
 1236.52        3346.00           6841        8801.00     38404.62
 1236.55        3346.25           6844        6227.00     27160.48
 1236.57        3346.50           6848        3209.00     13987.08
 1236.60        3346.75           6852        1328.00      5782.24
 1236.63        3347.00           6856         500.00      2171.90
 1236.66        3347.25           6859         247.00      1068.91
 1236.69        3347.50           6863         176.00       759.39
 1236.72        3347.75           6867         130.00       558.86
 1236.74        3348.00           6871         138.00       593.73
 1236.77        3348.25           6874         133.00       571.94
 1236.80        3348.50           6878         110.00       471.67
 1236.83        3348.75           6882         111.00       476.03
 1236.86        3349.00           6886         119.00       510.91
 1236.89        3349.25           6889         122.00       523.98
 1236.91        3349.50           6893         107.00       458.59
 1236.94        3349.75           6897         132.00       567.58
 1236.98        3350.00           6901         110.00       471.67
 1237.00        3350.25           6904         102.00       436.80
 1237.03        3350.50           6908         102.00       436.80
 1237.06        3350.75           6912         122.00       523.98
 1237.08        3351.00           6916         105.00       449.88
HL scan finished at 20:39:01
end
