************************************************************
  HL Scan of (1) Internal mercury lamp
************************************************************
Integration time is 0.2294 seconds per sample
dh160619El Arenosillo 37.1 6.73 2.92pr1000
************************************************************
Dead Time -------------------------  3.2E-08 
Number of Cycles Used -------------  4 
Starting Wavelength (Angstroms) ---  3331 
Final Wavelength (Angstoms) -------  3351 
Wavelength Increment (Angstroms) --  .25 
Filter Wheel #1 Position ---------- (1) Ground quartz diffuser (ND=2.32)
Filter Wheel #2 Position ---------- 



************************************************************
HL scan start time = 02:32:05
Dark Count =  .6 


Time (GMT)  Wavelength (Ang)  Step Number  Raw Counts  Counts/Second

  153.53        3331.00           6616         116.00       503.06
  154.57        3331.25           6620         126.00       546.65
  154.60        3331.50           6623         123.00       533.57
  154.62        3331.75           6627         171.00       742.82
  154.66        3332.00           6631         107.00       463.83
  154.68        3332.25           6635         182.00       790.78
  154.71        3332.50           6638         109.00       472.54
  154.74        3332.75           6642         104.00       450.75
  154.77        3333.00           6646         118.00       511.78
  154.80        3333.25           6649         156.00       677.43
  154.83        3333.50           6653         137.00       594.61
  154.86        3333.75           6657         138.00       598.97
  154.89        3334.00           6661         135.00       585.89
  154.92        3334.25           6664         144.00       625.12
  154.95        3334.50           6668         142.00       616.40
  154.98        3334.75           6672         142.00       616.40
  155.01        3335.00           6676         179.00       777.70
  155.04        3335.25           6679         193.00       838.73
  155.07        3335.50           6683         236.00      1026.19
  155.10        3335.75           6687         334.00      1453.42
  155.13        3336.00           6691        1177.00      5129.00
  155.16        3336.25           6694        3118.00     13595.28
  155.18        3336.50           6698        8071.00     35220.15
  155.21        3336.75           6702       14816.00     64717.15
  155.25        3337.00           6706       21434.00     93713.05
  155.27        3337.25           6709       26616.00    116455.00
  155.30        3337.50           6713       33213.00    145454.90
  155.34        3337.75           6717       38847.00    170264.30
  155.36        3338.00           6721       45830.00    201069.00
  155.39        3338.25           6724       50789.00    222982.10
  155.42        3338.50           6728       57699.00    253568.00
  155.45        3338.75           6732       64657.00    284427.10
  155.48        3339.00           6736       72179.00    317856.60
  155.51        3339.25           6739       77080.00    339676.60
  155.55        3339.50           6743       84644.00    373412.80
  155.57        3339.75           6747       91197.00    402699.20
  155.60        3340.00           6751       98003.00    433175.00
  155.64        3340.25           6754      102800.00    454690.80
  155.66        3340.50           6758       80841.00    356441.80
  155.68        3340.75           6762      116157.00    514758.60
  155.70        3341.00           6766      121018.00    536676.80
  155.74        3341.25           6769      122871.00    545040.10
  155.77        3341.50           6773      123644.00    548530.40
  155.79        3341.75           6777      122918.00    545252.30
  155.83        3342.00           6781      118919.00    527208.60
  155.86        3342.25           6784      114653.00    507983.30
  155.88        3342.50           6788      108396.00    479828.30
  155.91        3342.75           6792      101841.00    450387.10
  155.94        3343.00           6795       96431.00    426130.60
  155.97        3343.25           6799       89494.00    395082.90
  156.00        3343.50           6803       82557.00    364097.20
  156.04        3343.75           6807       74845.00    329722.20
  156.06        3344.00           6811       67794.00    298359.90
  156.09        3344.25           6814       62860.00    276451.40
  156.13        3344.50           6818       56399.00    247809.10
  156.16        3344.75           6822       49143.00    215705.20
  156.18        3345.00           6826       42352.00    185718.60
  156.22        3345.25           6829       37146.00    162769.70
  156.25        3345.50           6833       29895.00    130862.50
  156.28        3345.75           6837       22529.00     98515.84
  156.30        3346.00           6841       15466.00     67562.66
  156.34        3346.25           6844       10537.00     45997.92
  156.37        3346.50           6848        4964.00     21651.44
  156.39        3346.75           6852        1684.00      7340.00
  156.43        3347.00           6856         588.00      2560.80
  156.46        3347.25           6859         305.00      1327.00
  156.48        3347.50           6863         209.00       908.48
  156.51        3347.75           6867         177.00       768.98
  156.55        3348.00           6871         165.00       716.67
  156.57        3348.25           6874         149.00       646.92
  156.60        3348.50           6878         158.00       686.15
  156.63        3348.75           6882         128.00       555.37
  156.66        3349.00           6886         136.00       590.25
  156.69        3349.25           6889         146.00       633.84
  156.72        3349.50           6893         157.00       681.79
  156.75        3349.75           6897         123.00       533.57
  156.78        3350.00           6901         137.00       594.61
  156.81        3350.25           6904         135.00       585.89
  156.84        3350.50           6908         146.00       633.84
  156.87        3350.75           6912         122.00       529.22
  156.90        3351.00           6916         133.00       577.17
HL scan finished at 02:38:51
end
************************************************************
  HL Scan of (1) Internal mercury lamp
************************************************************
Integration time is 0.2294 seconds per sample
dh160619El Arenosillo 37.1 6.73 2.94pr1000
************************************************************
Dead Time -------------------------  3.2E-08 
Number of Cycles Used -------------  4 
Starting Wavelength (Angstroms) ---  3331 
Final Wavelength (Angstoms) -------  3351 
Wavelength Increment (Angstroms) --  .25 
Filter Wheel #1 Position ---------- (1) Ground quartz diffuser (ND=2.32)
Filter Wheel #2 Position ---------- 



************************************************************
HL scan start time = 21:55:25
Dark Count =  .7 


Time (GMT)  Wavelength (Ang)  Step Number  Raw Counts  Counts/Second

 1316.87        3331.00           6616         148.00       642.12
 1317.91        3331.25           6620         131.00       568.01
 1317.93        3331.50           6623         137.00       594.17
 1317.96        3331.75           6627         130.00       563.65
 1318.00        3332.00           6631         112.00       485.19
 1318.02        3332.25           6635         115.00       498.26
 1318.05        3332.50           6638         161.00       698.80
 1318.08        3332.75           6642         117.00       506.98
 1318.11        3333.00           6646         127.00       550.58
 1318.14        3333.25           6649         121.00       524.42
 1318.17        3333.50           6653         131.00       568.01
 1318.20        3333.75           6657         123.00       533.14
 1318.23        3334.00           6661         125.00       541.86
 1318.26        3334.25           6664         127.00       550.58
 1318.29        3334.50           6668         141.00       611.61
 1318.32        3334.75           6672         142.00       615.97
 1318.35        3335.00           6676         173.00       751.11
 1318.38        3335.25           6679         196.00       851.37
 1318.41        3335.50           6683         217.00       942.92
 1318.44        3335.75           6687         364.00      1583.78
 1318.47        3336.00           6691        1262.00      5499.22
 1318.50        3336.25           6694        3221.00     14044.24
 1318.53        3336.50           6698        8307.00     36250.83
 1318.56        3336.75           6702       14270.00     62326.89
 1318.59        3337.00           6706       20893.00     91340.27
 1318.62        3337.25           6709       25908.00    113345.40
 1318.65        3337.50           6713       32296.00    141420.20
 1318.68        3337.75           6717       38706.00    169642.50
 1318.71        3338.00           6721       45450.00    199390.70
 1318.73        3338.25           6724       50916.00    223543.30
 1318.76        3338.50           6728       57532.00    252827.60
 1318.80        3338.75           6732       64444.00    283481.10
 1318.83        3339.00           6736       71732.00    315867.60
 1318.85        3339.25           6739       76925.00    338985.50
 1318.89        3339.50           6743       83825.00    369756.00
 1318.92        3339.75           6747       90902.00    401379.10
 1318.94        3340.00           6751       97554.00    431162.10
 1318.97        3340.25           6754      102841.00    454874.40
 1318.99        3340.50           6758      109277.00    483789.10
 1319.02        3340.75           6762      115404.00    511365.60
 1319.05        3341.00           6766      119781.00    531095.80
 1319.08        3341.25           6769      121997.00    541094.50
 1319.11        3341.50           6773      122567.00    543667.30
 1319.14        3341.75           6777      121564.00    539140.30
 1319.18        3342.00           6781      117710.00    521757.20
 1319.20        3342.25           6784      113059.00    500805.30
 1319.23        3342.50           6788      106231.00    470097.70
 1319.26        3342.75           6792       99495.00    439863.40
 1319.29        3343.00           6795       94166.00    415985.90
 1319.32        3343.25           6799       86954.00    383729.80
 1319.35        3343.50           6803       79792.00    351763.50
 1319.38        3343.75           6807       72727.00    320294.40
 1319.41        3344.00           6811       65692.00    289022.10
 1319.44        3344.25           6814       61039.00    268373.00
 1319.47        3344.50           6818       54204.00    238090.00
 1319.50        3344.75           6822       47437.00    208166.30
 1319.53        3345.00           6826       40462.00    177382.90
 1319.56        3345.25           6829       35162.00    154032.40
 1319.59        3345.50           6833       28380.00    124203.70
 1319.62        3345.75           6837       21158.00     92502.28
 1319.65        3346.00           6841       14078.00     61486.60
 1319.68        3346.25           6844        9086.00     39654.91
 1319.71        3346.50           6848        4102.00     17888.62
 1319.73        3346.75           6852        1451.00      6323.43
 1319.77        3347.00           6856         506.00      2202.86
 1319.80        3347.25           6859         298.00      1296.04
 1319.82        3347.50           6863         215.00       934.20
 1319.85        3347.75           6867         177.00       768.55
 1319.89        3348.00           6871         158.00       685.72
 1319.91        3348.25           6874         154.00       668.28
 1319.94        3348.50           6878         147.00       637.76
 1319.97        3348.75           6882         139.00       602.89
 1320.00        3349.00           6886         151.00       655.20
 1320.03        3349.25           6889         137.00       594.17
 1320.06        3349.50           6893         133.00       576.73
 1320.09        3349.75           6897         159.00       690.08
 1320.12        3350.00           6901         156.00       677.00
 1320.14        3350.25           6904         152.00       659.56
 1320.18        3350.50           6908         141.00       611.61
 1320.21        3350.75           6912         144.00       624.69
 1320.23        3351.00           6916         141.00       611.61
HL scan finished at 22:02:11
end
