************************************************************
  HL Scan of (1) Internal mercury lamp
************************************************************
Integration time is 0.2294 seconds per sample
dh150617El Arenosillo 37.1 6.73 3.05pr1000
************************************************************
Dead Time -------------------------  3.2E-08 
Number of Cycles Used -------------  4 
Starting Wavelength (Angstroms) ---  3331 
Final Wavelength (Angstoms) -------  3351 
Wavelength Increment (Angstroms) --  .25 
Filter Wheel #1 Position ---------- (1) Ground quartz diffuser (ND=2.32)
Filter Wheel #2 Position ---------- 



************************************************************
HL scan start time = 01:23:05
Dark Count =  1 


Time (GMT)  Wavelength (Ang)  Step Number  Raw Counts  Counts/Second

   84.52        3331.00           6616         286.00      1242.42
   85.56        3331.25           6620         245.00      1063.68
   85.59        3331.50           6623         256.00      1111.63
   85.61        3331.75           6627         247.00      1072.40
   85.64        3332.00           6631         267.00      1159.59
   85.67        3332.25           6635         264.00      1146.51
   85.70        3332.50           6638         253.00      1098.56
   85.73        3332.75           6642         260.00      1129.07
   85.76        3333.00           6646         252.00      1094.20
   85.79        3333.25           6649         263.00      1142.15
   85.82        3333.50           6653         262.00      1137.79
   85.84        3333.75           6657         228.00       989.57
   85.87        3334.00           6661         282.00      1224.98
   85.91        3334.25           6664         273.00      1185.75
   85.94        3334.50           6668         304.00      1320.89
   85.96        3334.75           6672         364.00      1582.47
   85.99        3335.00           6676         429.00      1865.85
   86.02        3335.25           6679         410.00      1783.01
   86.05        3335.50           6683         503.00      2188.47
   86.08        3335.75           6687         940.00      4093.82
   86.11        3336.00           6691        3267.00     14243.63
   86.14        3336.25           6694        7513.00     32780.67
   86.17        3336.50           6698       17211.00     75202.55
   86.20        3336.75           6702       30207.00    132232.30
   86.22        3337.00           6706       43130.00    189149.30
   86.26        3337.25           6709       53534.00    235123.40
   86.28        3337.50           6713       67311.00    296212.10
   86.31        3337.75           6717       80263.00    353862.30
   86.34        3338.00           6721       94386.00    416969.60
   86.38        3338.25           6724      104157.00    460781.00
   86.40        3338.50           6728      118629.00    525899.10
   86.43        3338.75           6732      132971.00    590703.50
   86.46        3339.00           6736      146578.00    652438.60
   86.50        3339.25           6739      156967.00    699740.10
   86.52        3339.50           6743      170859.00    763218.10
   86.55        3339.75           6747      184082.00    823882.70
   86.58        3340.00           6751      197907.00    887565.60
   86.61        3340.25           6754      207819.00    933386.20
   86.64        3340.50           6758      220848.00    993824.50
   86.67        3340.75           6762      232187.00   1046617.00
   86.70        3341.00           6766      240956.00   1087569.00
   86.73        3341.25           6769      244504.00   1104170.00
   86.76        3341.50           6773      245535.00   1108997.00
   86.79        3341.75           6777      241980.00   1092359.00
   86.81        3342.00           6781      233716.00   1053750.00
   86.85        3342.25           6784      226237.00   1018892.00
   86.88        3342.50           6788      213609.00    960215.30
   86.90        3342.75           6792      200381.00    898989.50
   86.93        3343.00           6795      189175.00    847312.20
   86.97        3343.25           6799      174723.00    780920.80
   86.99        3343.50           6803      160960.00    717959.00
   87.02        3343.75           6807      145892.00    649320.30
   87.05        3344.00           6811      132317.00    587742.50
   87.08        3344.25           6814      122744.00    544465.00
   87.11        3344.50           6818      108700.00    481193.20
   87.14        3344.75           6822       95128.00    420292.20
   87.17        3345.00           6826       81645.00    360026.40
   87.20        3345.25           6829       71237.00    313664.50
   87.23        3345.50           6833       57936.00    254616.30
   87.26        3345.75           6837       43693.00    191633.60
   87.29        3346.00           6841       29609.00    129603.50
   87.32        3346.25           6844       20329.00     88866.13
   87.35        3346.50           6848        9753.00     42568.85
   87.38        3346.75           6852        3330.00     14518.51
   87.40        3347.00           6856        1135.00      4944.11
   87.44        3347.25           6859         663.00      2886.06
   87.46        3347.50           6863         500.00      2175.39
   87.49        3347.75           6867         405.00      1761.22
   87.52        3348.00           6871         372.00      1617.35
   87.56        3348.25           6874         337.00      1464.76
   87.58        3348.50           6878         319.00      1386.29
   87.61        3348.75           6882         306.00      1329.61
   87.64        3349.00           6886         289.00      1255.50
   87.68        3349.25           6889         269.00      1168.31
   87.70        3349.50           6893         277.00      1203.19
   87.73        3349.75           6897         287.00      1246.78
   87.76        3350.00           6901         286.00      1242.42
   87.79        3350.25           6904         295.00      1281.66
   87.82        3350.50           6908         274.00      1190.11
   87.85        3350.75           6912         285.00      1238.06
   87.88        3351.00           6916         288.00      1251.14
HL scan finished at 01:29:49
end
