************************************************************
  HL Scan of (1) Internal mercury lamp
************************************************************
Integration time is 0.2294 seconds per sample
dh160619El Arenosillo 37.1 6.73 2.92pr1000
************************************************************
Dead Time -------------------------  3.2E-08 
Number of Cycles Used -------------  4 
Starting Wavelength (Angstroms) ---  3331 
Final Wavelength (Angstoms) -------  3351 
Wavelength Increment (Angstroms) --  .25 
Filter Wheel #1 Position ---------- (1) Ground quartz diffuser (ND=2.32)
Filter Wheel #2 Position ---------- 



************************************************************
HL scan start time = 02:32:05
Dark Count =  .6 


Time (GMT)  Wavelength (Ang)  Step Number  Raw Counts  Counts/Second

  153.53        3331.00           6616         116.00       503.06
  154.57        3331.25           6620         126.00       546.65
  154.60        3331.50           6623         123.00       533.57
  154.62        3331.75           6627         171.00       742.82
  154.66        3332.00           6631         107.00       463.83
  154.68        3332.25           6635         182.00       790.78
  154.71        3332.50           6638         109.00       472.54
  154.74        3332.75           6642         104.00       450.75
  154.77        3333.00           6646         118.00       511.78
  154.80        3333.25           6649         156.00       677.43
  154.83        3333.50           6653         137.00       594.61
  154.86        3333.75           6657         138.00       598.97
  154.89        3334.00           6661         135.00       585.89
  154.92        3334.25           6664         144.00       625.12
  154.95        3334.50           6668         142.00       616.40
  154.98        3334.75           6672         142.00       616.40
  155.01        3335.00           6676         179.00       777.70
  155.04        3335.25           6679         193.00       838.73
  155.07        3335.50           6683         236.00      1026.19
  155.10        3335.75           6687         334.00      1453.42
  155.13        3336.00           6691        1177.00      5129.00
  155.16        3336.25           6694        3118.00     13595.28
  155.18        3336.50           6698        8071.00     35220.15
  155.21        3336.75           6702       14816.00     64717.15
  155.25        3337.00           6706       21434.00     93713.05
  155.27        3337.25           6709       26616.00    116455.00
  155.30        3337.50           6713       33213.00    145454.90
  155.34        3337.75           6717       38847.00    170264.30
  155.36        3338.00           6721       45830.00    201069.00
  155.39        3338.25           6724       50789.00    222982.10
  155.42        3338.50           6728       57699.00    253568.00
  155.45        3338.75           6732       64657.00    284427.10
  155.48        3339.00           6736       72179.00    317856.60
  155.51        3339.25           6739       77080.00    339676.60
  155.55        3339.50           6743       84644.00    373412.80
  155.57        3339.75           6747       91197.00    402699.20
  155.60        3340.00           6751       98003.00    433175.00
  155.64        3340.25           6754      102800.00    454690.80
  155.66        3340.50           6758       80841.00    356441.80
  155.68        3340.75           6762      116157.00    514758.60
  155.70        3341.00           6766      121018.00    536676.80
  155.74        3341.25           6769      122871.00    545040.10
  155.77        3341.50           6773      123644.00    548530.40
  155.79        3341.75           6777      122918.00    545252.30
  155.83        3342.00           6781      118919.00    527208.60
  155.86        3342.25           6784      114653.00    507983.30
  155.88        3342.50           6788      108396.00    479828.30
  155.91        3342.75           6792      101841.00    450387.10
  155.94        3343.00           6795       96431.00    426130.60
  155.97        3343.25           6799       89494.00    395082.90
  156.00        3343.50           6803       82557.00    364097.20
  156.04        3343.75           6807       74845.00    329722.20
  156.06        3344.00           6811       67794.00    298359.90
  156.09        3344.25           6814       62860.00    276451.40
  156.13        3344.50           6818       56399.00    247809.10
  156.16        3344.75           6822       49143.00    215705.20
  156.18        3345.00           6826       42352.00    185718.60
  156.22        3345.25           6829       37146.00    162769.70
  156.25        3345.50           6833       29895.00    130862.50
  156.28        3345.75           6837       22529.00     98515.84
  156.30        3346.00           6841       15466.00     67562.66
  156.34        3346.25           6844       10537.00     45997.92
  156.37        3346.50           6848        4964.00     21651.44
  156.39        3346.75           6852        1684.00      7340.00
  156.43        3347.00           6856         588.00      2560.80
  156.46        3347.25           6859         305.00      1327.00
  156.48        3347.50           6863         209.00       908.48
  156.51        3347.75           6867         177.00       768.98
  156.55        3348.00           6871         165.00       716.67
  156.57        3348.25           6874         149.00       646.92
  156.60        3348.50           6878         158.00       686.15
  156.63        3348.75           6882         128.00       555.37
  156.66        3349.00           6886         136.00       590.25
  156.69        3349.25           6889         146.00       633.84
  156.72        3349.50           6893         157.00       681.79
  156.75        3349.75           6897         123.00       533.57
  156.78        3350.00           6901         137.00       594.61
  156.81        3350.25           6904         135.00       585.89
  156.84        3350.50           6908         146.00       633.84
  156.87        3350.75           6912         122.00       529.22
  156.90        3351.00           6916         133.00       577.17
HL scan finished at 02:38:51
end
