************************************************************
  HL Scan of (1) Internal mercury lamp
************************************************************
Integration time is 0.2294 seconds per sample
dh140619El Arenosillo 37.1 6.73 2.92pr1000
************************************************************
Dead Time -------------------------  3.2E-08 
Number of Cycles Used -------------  4 
Starting Wavelength (Angstroms) ---  3331 
Final Wavelength (Angstoms) -------  3351 
Wavelength Increment (Angstroms) --  .25 
Filter Wheel #1 Position ---------- (1) Ground quartz diffuser (ND=2.32)
Filter Wheel #2 Position ---------- 



************************************************************
HL scan start time = 21:56:36
Dark Count =  .8 


Time (GMT)  Wavelength (Ang)  Step Number  Raw Counts  Counts/Second

 1318.05        3331.00           6616         110.00       476.03
 1319.09        3331.25           6620         163.00       707.08
 1319.11        3331.50           6623         139.00       602.45
 1319.14        3331.75           6627         117.00       506.55
 1319.17        3332.00           6631         120.00       519.63
 1319.20        3332.25           6635         133.00       576.30
 1319.23        3332.50           6638         135.00       585.02
 1319.25        3332.75           6642         128.00       554.50
 1319.29        3333.00           6646         148.00       641.69
 1319.31        3333.25           6649         138.00       598.09
 1319.34        3333.50           6653         121.00       523.98
 1319.37        3333.75           6657         132.00       571.94
 1319.39        3334.00           6661         113.00       489.11
 1319.42        3334.25           6664         129.00       558.86
 1319.45        3334.50           6668         149.00       646.05
 1319.48        3334.75           6672         142.00       615.53
 1319.51        3335.00           6676         176.00       763.75
 1319.53        3335.25           6679         186.00       807.34
 1319.56        3335.50           6683         219.00       951.21
 1319.59        3335.75           6687         310.00      1347.92
 1319.62        3336.00           6691        1063.00      4631.03
 1319.65        3336.25           6694        3093.00     13485.33
 1319.67        3336.50           6698        8099.00     35341.61
 1319.70        3336.75           6702       14377.00     62794.76
 1319.73        3337.00           6706       21007.00     91839.69
 1319.76        3337.25           6709       25934.00    113459.10
 1319.79        3337.50           6713       32718.00    143276.20
 1319.82        3337.75           6717       39059.00    171197.70
 1319.84        3338.00           6721       45701.00    200498.50
 1319.87        3338.25           6724       50430.00    221393.80
 1319.90        3338.50           6728       57003.00    250483.60
 1319.93        3338.75           6732       63920.00    281154.60
 1319.96        3339.00           6736       70381.00    309858.50
 1319.99        3339.25           6739       75854.00    334214.50
 1320.01        3339.50           6743       82553.00    364078.50
 1320.04        3339.75           6747       89495.00    395086.50
 1320.07        3340.00           6751       96886.00    428168.30
 1320.10        3340.25           6754      101417.00    448483.80
 1320.13        3340.50           6758      108496.00    480277.00
 1320.16        3340.75           6762      114699.00    508189.60
 1320.18        3341.00           6766      119442.00    529566.40
 1320.21        3341.25           6769      121877.00    540552.50
 1320.24        3341.50           6773      123344.00    547174.90
 1320.27        3341.75           6777      121809.00    540245.50
 1320.30        3342.00           6781      118498.00    525309.40
 1320.32        3342.25           6784      114120.00    505582.10
 1320.35        3342.50           6788      107967.00    477898.90
 1320.38        3342.75           6792      101042.00    446801.40
 1320.41        3343.00           6795       96201.00    425099.30
 1320.43        3343.25           6799       89483.00    395032.90
 1320.46        3343.50           6803       82723.00    364837.10
 1320.49        3343.75           6807       76447.00    336855.70
 1320.52        3344.00           6811       69422.00    305594.60
 1320.55        3344.25           6814       64341.00    283023.40
 1320.58        3344.50           6818       57036.00    250629.80
 1320.61        3344.75           6822       50308.00    220854.40
 1320.64        3345.00           6826       43082.00    188938.40
 1320.67        3345.25           6829       37622.00    164865.80
 1320.70        3345.50           6833       30275.00    132532.10
 1320.72        3345.75           6837       23444.00    102529.40
 1320.75        3346.00           6841       16713.00     73022.23
 1320.78        3346.25           6844       11308.00     49368.26
 1320.81        3346.50           6848        5616.00     24496.97
 1320.84        3346.75           6852        2006.00      8743.51
 1320.87        3347.00           6856         622.00      2708.17
 1320.89        3347.25           6859         380.00      1653.10
 1320.92        3347.50           6863         237.00      1029.68
 1320.95        3347.75           6867         180.00       781.19
 1320.98        3348.00           6871         161.00       698.36
 1321.01        3348.25           6874         152.00       659.12
 1321.04        3348.50           6878         148.00       641.69
 1321.07        3348.75           6882         144.00       624.25
 1321.09        3349.00           6886         151.00       654.77
 1321.12        3349.25           6889         135.00       585.02
 1321.15        3349.50           6893         145.00       628.61
 1321.18        3349.75           6897         137.00       593.73
 1321.21        3350.00           6901         152.00       659.12
 1321.23        3350.25           6904         141.00       611.17
 1321.26        3350.50           6908         136.00       589.37
 1321.29        3350.75           6912         134.00       580.66
 1321.32        3351.00           6916         138.00       598.09
HL scan finished at 22:03:16
end
