************************************************************
  HL Scan of (1) Internal mercury lamp
************************************************************
Integration time is 0.2294 seconds per sample
dh170619El Arenosillo 37.1 6.73 2.86pr1000
************************************************************
Dead Time -------------------------  3.2E-08 
Number of Cycles Used -------------  4 
Starting Wavelength (Angstroms) ---  3331 
Final Wavelength (Angstoms) -------  3351 
Wavelength Increment (Angstroms) --  .25 
Filter Wheel #1 Position ---------- (1) Ground quartz diffuser (ND=2.32)
Filter Wheel #2 Position ---------- 



************************************************************
HL scan start time = 02:23:40
Dark Count =  .4 


Time (GMT)  Wavelength (Ang)  Step Number  Raw Counts  Counts/Second

  145.12        3331.00           6616         126.00       547.52
  146.15        3331.25           6620         117.00       508.29
  146.18        3331.50           6623         137.00       595.48
  146.21        3331.75           6627         116.00       503.93
  146.24        3332.00           6631         127.00       551.88
  146.27        3332.25           6635         152.00       660.87
  146.29        3332.50           6638         111.00       482.13
  146.33        3332.75           6642         110.00       477.78
  146.36        3333.00           6646         152.00       660.87
  146.38        3333.25           6649         133.00       578.04
  146.41        3333.50           6653         130.00       564.96
  146.44        3333.75           6657         113.00       490.85
  146.47        3334.00           6661         149.00       647.79
  146.50        3334.25           6664         119.00       517.01
  146.53        3334.50           6668         163.00       708.82
  146.56        3334.75           6672         159.00       691.38
  146.59        3335.00           6676         167.00       726.26
  146.62        3335.25           6679         194.00       843.96
  146.65        3335.50           6683         229.00       996.54
  146.68        3335.75           6687         523.00      2278.28
  146.71        3336.00           6691        2115.00      9220.68
  146.74        3336.25           6694        4850.00     21154.68
  146.77        3336.50           6698       10330.00     45093.80
  146.80        3336.75           6702       17031.00     74416.76
  146.83        3337.00           6706       23727.00    103773.00
  146.86        3337.25           6709       29192.00    127773.30
  146.88        3337.50           6713       35654.00    156199.90
  146.92        3337.75           6717       42198.00    185040.10
  146.95        3338.00           6721       49106.00    215542.60
  146.97        3338.25           6724       54124.00    237737.20
  147.01        3338.50           6728       60576.00    266321.10
  147.04        3338.75           6732       67339.00    296339.20
  147.07        3339.00           6736       74155.00    326651.30
  147.10        3339.25           6739       79598.00    350899.90
  147.13        3339.50           6743       86640.00    382328.30
  147.16        3339.75           6747       93311.00    412159.70
  147.19        3340.00           6751       99772.00    441106.80
  147.22        3340.25           6754      104784.00    463599.30
  147.24        3340.50           6758      111079.00    491895.80
  147.27        3340.75           6762      116893.00    518076.10
  147.31        3341.00           6766      120661.00    535067.00
  147.33        3341.25           6769      122024.00    541217.70
  147.36        3341.50           6773      122409.00    542955.50
  147.40        3341.75           6777      120486.00    534277.50
  147.42        3342.00           6781      115660.00    512520.20
  147.45        3342.25           6784      110825.00    490753.00
  147.48        3342.50           6788      103993.00    460047.30
  147.51        3342.75           6792       96962.00    428510.60
  147.54        3343.00           6795       91497.00    404042.20
  147.57        3343.25           6799       84456.00    372574.30
  147.60        3343.50           6803       77522.00    341646.80
  147.63        3343.75           6807       70649.00    311052.00
  147.66        3344.00           6811       64100.00    281955.40
  147.69        3344.25           6814       58817.00    258523.10
  147.72        3344.50           6818       52469.00    230413.70
  147.75        3344.75           6822       45694.00    200469.40
  147.78        3345.00           6826       38452.00    168524.50
  147.81        3345.25           6829       33436.00    146437.00
  147.84        3345.50           6833       26167.00    114484.00
  147.87        3345.75           6837       19255.00     84160.96
  147.90        3346.00           6841       12371.00     54019.19
  147.93        3346.25           6844        7893.00     34443.35
  147.96        3346.50           6848        3423.00     14926.92
  147.99        3346.75           6852        1162.00      5064.47
  148.02        3347.00           6856         421.00      1833.59
  148.04        3347.25           6859         275.00      1197.08
  148.08        3347.50           6863         211.00       918.07
  148.11        3347.75           6867         184.00       800.37
  148.13        3348.00           6871         165.00       717.54
  148.17        3348.25           6874         160.00       695.74
  148.20        3348.50           6878         158.00       687.02
  148.22        3348.75           6882         150.00       652.15
  148.26        3349.00           6886         165.00       717.54
  148.29        3349.25           6889         158.00       687.02
  148.31        3349.50           6893         139.00       604.20
  148.34        3349.75           6897         146.00       634.71
  148.37        3350.00           6901         149.00       647.79
  148.40        3350.25           6904         133.00       578.04
  148.43        3350.50           6908         153.00       665.23
  148.46        3350.75           6912         144.00       625.99
  148.49        3351.00           6916         172.00       748.06
HL scan finished at 02:30:25
end
