************************************************************
  HL Scan of (1) Internal mercury lamp
************************************************************
Integration time is 0.2294 seconds per sample
dh150619El Arenosillo 37.1 6.73 2.8pr1000
************************************************************
Dead Time -------------------------  3.2E-08 
Number of Cycles Used -------------  4 
Starting Wavelength (Angstroms) ---  3331 
Final Wavelength (Angstoms) -------  3351 
Wavelength Increment (Angstroms) --  .25 
Filter Wheel #1 Position ---------- (1) Ground quartz diffuser (ND=2.32)
Filter Wheel #2 Position ---------- 



************************************************************
HL scan start time = 01:22:36
Dark Count =  .5 


Time (GMT)  Wavelength (Ang)  Step Number  Raw Counts  Counts/Second

   84.05        3331.00           6616         152.00       660.43
   85.08        3331.25           6620         128.00       555.81
   85.11        3331.50           6623         119.00       516.57
   85.14        3331.75           6627         135.00       586.32
   85.17        3332.00           6631         138.00       599.40
   85.20        3332.25           6635         135.00       586.32
   85.23        3332.50           6638         146.00       634.28
   85.26        3332.75           6642         117.00       507.85
   85.29        3333.00           6646         124.00       538.37
   85.32        3333.25           6649         118.00       512.21
   85.35        3333.50           6653         123.00       534.01
   85.38        3333.75           6657         114.00       494.78
   85.41        3334.00           6661         132.00       573.25
   85.43        3334.25           6664         169.00       734.54
   85.47        3334.50           6668         190.00       826.09
   85.49        3334.75           6672         156.00       677.87
   85.52        3335.00           6676         181.00       786.86
   85.56        3335.25           6679         208.00       904.56
   85.58        3335.50           6683         217.00       943.79
   85.61        3335.75           6687         271.00      1179.21
   85.65        3336.00           6691         722.00      3145.48
   85.68        3336.25           6694        2200.00      9591.00
   85.70        3336.50           6698        6683.00     29157.53
   85.73        3336.75           6702       12837.00     56057.31
   85.76        3337.00           6706       19655.00     85913.74
   85.79        3337.25           6709       24569.00    107467.90
   85.82        3337.50           6713       31288.00    136987.60
   85.85        3337.75           6717       37828.00    165774.60
   85.88        3338.00           6721       44419.00    194840.10
   85.91        3338.25           6724       49624.00    217831.80
   85.94        3338.50           6728       56391.00    247774.20
   85.97        3338.75           6732       63492.00    279256.40
   86.00        3339.00           6736       70252.00    309286.20
   86.03        3339.25           6739       75545.00    332839.60
   86.06        3339.50           6743       82970.00    365940.70
   86.09        3339.75           6747       90600.00    400029.30
   86.12        3340.00           6751       97288.00    429971.00
   86.15        3340.25           6754      102438.00    453066.60
   86.18        3340.50           6758      109489.00    484743.30
   86.20        3340.75           6762      115885.00    513533.40
   86.24        3341.00           6766      120985.00    536528.40
   86.27        3341.25           6769      123916.00    549759.10
   86.29        3341.50           6773      125311.00    556060.30
   86.33        3341.75           6777      124228.00    551168.20
   86.36        3342.00           6781      121620.00    539393.90
   86.38        3342.25           6784      117238.00    519630.50
   86.42        3342.50           6788      111617.00    494316.10
   86.44        3342.75           6792      104838.00    463841.40
   86.47        3343.00           6795      100399.00    443918.40
   86.50        3343.25           6799       92996.00    410749.40
   86.54        3343.50           6803       85697.00    378115.50
   86.56        3343.75           6807       78490.00    345960.20
   86.59        3344.00           6811       71422.00    314489.50
   86.63        3344.25           6814       66060.00    290657.30
   86.66        3344.50           6818       58979.00    259240.70
   86.68        3344.75           6822       51951.00    228121.70
   86.72        3345.00           6826       44884.00    196892.70
   86.75        3345.25           6829       39435.00    172856.30
   86.77        3345.50           6833       32170.00    140866.80
   86.80        3345.75           6837       25412.00    111168.50
   86.84        3346.00           6841       18073.00     78980.97
   86.86        3346.25           6844       12651.00     55243.61
   86.89        3346.50           6848        6490.00     28314.66
   86.92        3346.75           6852        2309.00     10066.45
   86.95        3347.00           6856         696.00      3032.12
   86.98        3347.25           6859         361.00      1571.57
   87.01        3347.50           6863         256.00      1113.81
   87.04        3347.75           6867         185.00       804.29
   87.07        3348.00           6871         151.00       656.07
   87.10        3348.25           6874         162.00       704.03
   87.13        3348.50           6878         154.00       669.15
   87.16        3348.75           6882         167.00       725.82
   87.18        3349.00           6886         151.00       656.07
   87.21        3349.25           6889         142.00       616.84
   87.24        3349.50           6893         170.00       738.90
   87.26        3349.75           6897         130.00       564.53
   87.30        3350.00           6901         134.00       581.96
   87.33        3350.25           6904         134.00       581.96
   87.35        3350.50           6908         132.00       573.25
   87.39        3350.75           6912         124.00       538.37
   87.42        3351.00           6916         151.00       656.07
HL scan finished at 01:29:21
end
************************************************************
  HL Scan of (1) Internal mercury lamp
************************************************************
Integration time is 0.2294 seconds per sample
dh150619El Arenosillo 37.1 6.73 2.82pr1000
************************************************************
Dead Time -------------------------  3.2E-08 
Number of Cycles Used -------------  4 
Starting Wavelength (Angstroms) ---  3331 
Final Wavelength (Angstoms) -------  3351 
Wavelength Increment (Angstroms) --  .25 
Filter Wheel #1 Position ---------- (1) Ground quartz diffuser (ND=2.32)
Filter Wheel #2 Position ---------- 



************************************************************
HL scan start time = 02:32:20
Dark Count =  .5 


Time (GMT)  Wavelength (Ang)  Step Number  Raw Counts  Counts/Second

  153.77        3331.00           6616         111.00       481.70
  154.81        3331.25           6620         114.00       494.78
  154.84        3331.50           6623         130.00       564.53
  154.87        3331.75           6627         123.00       534.01
  154.90        3332.00           6631         108.00       468.62
  154.93        3332.25           6635         133.00       577.60
  154.96        3332.50           6638         132.00       573.25
  154.99        3332.75           6642         122.00       529.65
  155.02        3333.00           6646         127.00       551.45
  155.04        3333.25           6649         161.00       699.67
  155.07        3333.50           6653         129.00       560.17
  155.11        3333.75           6657         117.00       507.85
  155.13        3334.00           6661         134.00       581.96
  155.16        3334.25           6664         153.00       664.79
  155.19        3334.50           6668         140.00       608.12
  155.22        3334.75           6672         166.00       721.46
  155.25        3335.00           6676         169.00       734.54
  155.28        3335.25           6679         196.00       852.25
  155.31        3335.50           6683         225.00       978.67
  155.34        3335.75           6687         359.00      1562.85
  155.37        3336.00           6691        1216.00      5299.50
  155.40        3336.25           6694        3446.00     15026.84
  155.43        3336.50           6698        8726.00     38082.56
  155.46        3336.75           6702       15110.00     66004.57
  155.49        3337.00           6706       21873.00     95638.81
  155.52        3337.25           6709       27060.00    118405.50
  155.55        3337.50           6713       33305.00    145860.10
  155.58        3337.75           6717       39814.00    174526.90
  155.61        3338.00           6721       46197.00    202690.10
  155.64        3338.25           6724       51262.00    225074.30
  155.67        3338.50           6728       57843.00    254206.40
  155.70        3338.75           6732       64663.00    284454.20
  155.73        3339.00           6736       71312.00    314000.20
  155.76        3339.25           6739       76402.00    336656.60
  155.79        3339.50           6743       83130.00    366654.80
  155.82        3339.75           6747       89815.00    396518.70
  155.85        3340.00           6751       96673.00    427215.20
  155.87        3340.25           6754      101624.00    449413.90
  155.91        3340.50           6758      108393.00    479815.20
  155.93        3340.75           6762      114725.00    508308.00
  155.96        3341.00           6766      119367.00    529229.50
  155.99        3341.25           6769      121574.00    539186.30
  156.02        3341.50           6773      122910.00    545216.80
  156.05        3341.75           6777      121186.00    537435.30
  156.08        3342.00           6781      116973.00    518436.20
  156.11        3342.25           6784      112125.00    496602.20
  156.14        3342.50           6788      105399.00    466361.10
  156.16        3342.75           6792       98680.00    436210.10
  156.20        3343.00           6795       94036.00    415404.80
  156.22        3343.25           6799       87388.00    385669.90
  156.25        3343.50           6803       81347.00    358699.20
  156.28        3343.75           6807       74431.00    327879.50
  156.31        3344.00           6811       67180.00    295632.30
  156.34        3344.25           6814       61859.00    272010.90
  156.37        3344.50           6818       55394.00    243359.00
  156.40        3344.75           6822       48853.00    214424.00
  156.43        3345.00           6826       42244.00    185242.60
  156.46        3345.25           6829       37311.00    163497.00
  156.49        3345.50           6833       29979.00    131232.20
  156.52        3345.75           6837       23199.00    101455.70
  156.55        3346.00           6841       16121.00     70431.02
  156.58        3346.25           6844       10796.00     47130.75
  156.61        3346.50           6848        5015.00     21874.51
  156.64        3346.75           6852        1527.00      6655.73
  156.67        3347.00           6856         519.00      2260.41
  156.70        3347.25           6859         320.00      1392.83
  156.73        3347.50           6863         222.00       965.59
  156.76        3347.75           6867         174.00       756.34
  156.79        3348.00           6871         165.00       717.10
  156.82        3348.25           6874         146.00       634.28
  156.85        3348.50           6878         153.00       664.79
  156.88        3348.75           6882         150.00       651.71
  156.91        3349.00           6886         138.00       599.40
  156.94        3349.25           6889         152.00       660.43
  156.96        3349.50           6893         139.00       603.76
  157.00        3349.75           6897         157.00       682.23
  157.02        3350.00           6901         147.00       638.64
  157.05        3350.25           6904         137.00       595.04
  157.09        3350.50           6908         137.00       595.04
  157.11        3350.75           6912         138.00       599.40
  157.14        3351.00           6916         146.00       634.28
HL scan finished at 02:39:05
end
************************************************************
  HL Scan of (1) Internal mercury lamp
************************************************************
Integration time is 0.2294 seconds per sample
dh150619El Arenosillo 37.1 6.73 2.96pr1000
************************************************************
Dead Time -------------------------  3.2E-08 
Number of Cycles Used -------------  4 
Starting Wavelength (Angstroms) ---  3331 
Final Wavelength (Angstoms) -------  3351 
Wavelength Increment (Angstroms) --  .25 
Filter Wheel #1 Position ---------- (1) Ground quartz diffuser (ND=2.32)
Filter Wheel #2 Position ---------- 



************************************************************
HL scan start time = 21:55:27
Dark Count =  .7 


Time (GMT)  Wavelength (Ang)  Step Number  Raw Counts  Counts/Second

 1316.89        3331.00           6616         126.00       546.22
 1317.93        3331.25           6620         126.00       546.22
 1317.96        3331.50           6623         117.00       506.98
 1317.98        3331.75           6627         106.00       459.03
 1318.02        3332.00           6631         122.00       528.78
 1318.05        3332.25           6635         133.00       576.73
 1318.07        3332.50           6638         136.00       589.81
 1318.10        3332.75           6642         136.00       589.81
 1318.12        3333.00           6646         111.00       480.83
 1318.15        3333.25           6649         129.00       559.30
 1318.18        3333.50           6653         117.00       506.98
 1318.21        3333.75           6657         108.00       467.75
 1318.24        3334.00           6661         125.00       541.86
 1318.27        3334.25           6664         146.00       633.40
 1318.30        3334.50           6668         146.00       633.40
 1318.33        3334.75           6672         156.00       677.00
 1318.36        3335.00           6676         181.00       785.98
 1318.39        3335.25           6679         185.00       803.42
 1318.42        3335.50           6683         219.00       951.64
 1318.45        3335.75           6687         354.00      1540.18
 1318.48        3336.00           6691        1249.00      5442.53
 1318.51        3336.25           6694        3514.00     15322.68
 1318.54        3336.50           6698        8838.00     38571.12
 1318.57        3336.75           6702       15550.00     67929.99
 1318.60        3337.00           6706       22338.00     97677.55
 1318.63        3337.25           6709       27724.00    121321.50
 1318.66        3337.50           6713       34208.00    149833.10
 1318.69        3337.75           6717       40853.00    179106.90
 1318.72        3338.00           6721       47499.00    208440.20
 1318.75        3338.25           6724       51971.00    228209.30
 1318.77        3338.50           6728       58808.00    258481.90
 1318.81        3338.75           6732       65569.00    288476.00
 1318.84        3339.00           6736       72683.00    320098.60
 1318.86        3339.25           6739       77525.00    341658.80
 1318.90        3339.50           6743       84300.00    371876.50
 1318.93        3339.75           6747       91464.00    403893.20
 1318.95        3340.00           6751       97595.00    431345.90
 1318.98        3340.25           6754      102729.00    454371.70
 1319.01        3340.50           6758      109083.00    482916.70
 1319.04        3340.75           6762      115995.00    514028.20
 1319.07        3341.00           6766      120533.00    534488.10
 1319.10        3341.25           6769      122408.00    542949.50
 1319.13        3341.50           6773      123120.00    546163.90
 1319.16        3341.75           6777      121421.00    538494.90
 1319.19        3342.00           6781      117511.00    520860.20
 1319.22        3342.25           6784      112889.00    500040.10
 1319.25        3342.50           6788      106081.00    469423.80
 1319.27        3342.75           6792       99664.00    440621.20
 1319.31        3343.00           6795       94479.00    417387.30
 1319.34        3343.25           6799       87707.00    387094.50
 1319.37        3343.50           6803       80684.00    355741.20
 1319.40        3343.75           6807       73998.00    325951.00
 1319.43        3344.00           6811       67366.00    296457.70
 1319.46        3344.25           6814       62350.00    274188.20
 1319.49        3344.50           6818       56029.00    246170.00
 1319.52        3344.75           6822       48922.00    214728.00
 1319.55        3345.00           6826       42551.00    186596.10
 1319.58        3345.25           6829       37028.00    162249.60
 1319.61        3345.50           6833       30057.00    131574.20
 1319.64        3345.75           6837       23013.00    100638.80
 1319.67        3346.00           6841       15677.00     68486.02
 1319.70        3346.25           6844       10654.00     46509.01
 1319.73        3346.50           6848        4784.00     20865.28
 1319.76        3346.75           6852        1614.00      7034.28
 1319.78        3347.00           6856         517.00      2250.82
 1319.82        3347.25           6859         289.00      1256.81
 1319.85        3347.50           6863         212.00       921.13
 1319.88        3347.75           6867         178.00       772.90
 1319.91        3348.00           6871         165.00       716.23
 1319.94        3348.25           6874         151.00       655.20
 1319.96        3348.50           6878         169.00       733.67
 1320.00        3348.75           6882         137.00       594.17
 1320.03        3349.00           6886         149.00       646.48
 1320.06        3349.25           6889         134.00       581.09
 1320.08        3349.50           6893         146.00       633.40
 1320.12        3349.75           6897         135.00       585.45
 1320.14        3350.00           6901         144.00       624.69
 1320.17        3350.25           6904         184.00       799.06
 1320.20        3350.50           6908         144.00       624.69
 1320.23        3350.75           6912         130.00       563.65
 1320.26        3351.00           6916         144.00       624.69
HL scan finished at 22:02:12
end
