************************************************************
  HL Scan of (1) Internal mercury lamp
************************************************************
Integration time is 0.2294 seconds per sample
dh150618El Arenosillo 37.1 6.73 2.9pr1000
************************************************************
Dead Time -------------------------  3.2E-08 
Number of Cycles Used -------------  4 
Starting Wavelength (Angstroms) ---  3331 
Final Wavelength (Angstoms) -------  3351 
Wavelength Increment (Angstroms) --  .25 
Filter Wheel #1 Position ---------- (1) Ground quartz diffuser (ND=2.32)
Filter Wheel #2 Position ---------- 



************************************************************
HL scan start time = 01:25:54
Dark Count =  .5 


Time (GMT)  Wavelength (Ang)  Step Number  Raw Counts  Counts/Second

   87.34        3331.00           6616         143.00       621.20
   88.38        3331.25           6620         146.00       634.28
   88.41        3331.50           6623         149.00       647.35
   88.43        3331.75           6627         145.00       629.92
   88.47        3332.00           6631         145.00       629.92
   88.49        3332.25           6635         144.00       625.56
   88.52        3332.50           6638         155.00       673.51
   88.55        3332.75           6642         143.00       621.20
   88.58        3333.00           6646         141.00       612.48
   88.61        3333.25           6649         151.00       656.07
   88.64        3333.50           6653         158.00       686.59
   88.67        3333.75           6657         151.00       656.07
   88.70        3334.00           6661         162.00       704.03
   88.73        3334.25           6664         158.00       686.59
   88.76        3334.50           6668         175.00       760.70
   88.79        3334.75           6672         205.00       891.48
   88.81        3335.00           6676         236.00      1026.63
   88.84        3335.25           6679         281.00      1222.80
   88.88        3335.50           6683         327.00      1423.34
   88.90        3335.75           6687         626.00      2726.92
   88.93        3336.00           6691        2522.00     10995.59
   88.97        3336.25           6694        5894.00     25712.08
   89.00        3336.50           6698       13666.00     59684.51
   89.02        3336.75           6702       23573.00    103096.80
   89.06        3337.00           6706       34174.00    149684.30
   89.09        3337.25           6709       42182.00    184969.10
   89.11        3337.50           6713       52869.00    232183.00
   89.14        3337.75           6717       62997.00    277059.80
   89.18        3338.00           6721       73414.00    323352.50
   89.20        3338.25           6724       81296.00    358471.80
   89.23        3338.50           6728       91327.00    403281.20
   89.27        3338.75           6732      101999.00    451096.50
   89.30        3339.00           6736      111789.00    495090.10
   89.32        3339.25           6739      119756.00    530984.00
   89.36        3339.50           6743      130467.00    579371.90
   89.39        3339.75           6747      140667.00    625592.30
   89.41        3340.00           6751      150427.00    669948.60
   89.44        3340.25           6754      158370.00    706141.40
   89.47        3340.50           6758      167802.00    749229.30
   89.50        3340.75           6762      176730.00    790126.00
   89.53        3341.00           6766      182631.00    817216.40
   89.56        3341.25           6769      185314.00    829549.40
   89.59        3341.50           6773      186790.00    836338.40
   89.62        3341.75           6777      184517.00    825884.80
   89.65        3342.00           6781      178239.00    797049.10
   89.68        3342.25           6784      171312.00    765294.80
   89.71        3342.50           6788      161089.00    718550.30
   89.73        3342.75           6792      150451.00    670057.80
   89.77        3343.00           6795      142826.00    635393.40
   89.79        3343.25           6799      132021.00    586404.80
   89.82        3343.50           6803      121630.00    539439.00
   89.86        3343.75           6807      110835.00    490797.60
   89.89        3344.00           6811      100537.00    444537.40
   89.91        3344.25           6814       93503.00    413018.70
   89.95        3344.50           6818       83187.00    366909.20
   89.98        3344.75           6822       73333.00    322992.00
   90.01        3345.00           6826       63920.00    281156.00
   90.03        3345.25           6829       55991.00    246002.60
   90.07        3345.50           6833       45573.00    199934.60
   90.09        3345.75           6837       35010.00    153364.20
   90.12        3346.00           6841       24103.00    105422.60
   90.15        3346.25           6844       16347.00     71420.68
   90.18        3346.50           6848        8241.00     35963.34
   90.21        3346.75           6852        2981.00     12998.00
   90.24        3347.00           6856         864.00      3764.62
   90.27        3347.25           6859         450.00      1959.58
   90.30        3347.50           6863         300.00      1305.63
   90.32        3347.75           6867         259.00      1126.89
   90.36        3348.00           6871         225.00       978.67
   90.38        3348.25           6874         195.00       847.89
   90.41        3348.50           6878         178.00       773.78
   90.44        3348.75           6882         179.00       778.14
   90.48        3349.00           6886         178.00       773.78
   90.50        3349.25           6889         183.00       795.57
   90.53        3349.50           6893         160.00       695.31
   90.56        3349.75           6897         171.00       743.26
   90.59        3350.00           6901         169.00       734.54
   90.62        3350.25           6904         168.00       730.18
   90.65        3350.50           6908         161.00       699.67
   90.68        3350.75           6912         177.00       769.42
   90.71        3351.00           6916         174.00       756.34
HL scan finished at 01:32:39
end
