************************************************************
  HL Scan of (1) Internal mercury lamp
************************************************************
Integration time is 0.2294 seconds per sample
dh180619El Arenosillo 37.1 6.73 2.86pr1000
************************************************************
Dead Time -------------------------  3.2E-08 
Number of Cycles Used -------------  4 
Starting Wavelength (Angstroms) ---  3331 
Final Wavelength (Angstoms) -------  3351 
Wavelength Increment (Angstroms) --  .25 
Filter Wheel #1 Position ---------- (1) Ground quartz diffuser (ND=2.32)
Filter Wheel #2 Position ---------- 



************************************************************
HL scan start time = 02:38:20
Dark Count =  .5 


Time (GMT)  Wavelength (Ang)  Step Number  Raw Counts  Counts/Second

  159.77        3331.00           6616         135.00       586.32
  160.81        3331.25           6620         146.00       634.28
  160.83        3331.50           6623         132.00       573.25
  160.86        3331.75           6627         124.00       538.37
  160.89        3332.00           6631         120.00       520.93
  160.92        3332.25           6635         131.00       568.89
  160.95        3332.50           6638         147.00       638.64
  160.98        3332.75           6642         146.00       634.28
  161.01        3333.00           6646         144.00       625.56
  161.03        3333.25           6649         106.00       459.90
  161.07        3333.50           6653         105.00       455.54
  161.09        3333.75           6657         129.00       560.17
  161.12        3334.00           6661         140.00       608.12
  161.16        3334.25           6664         136.00       590.68
  161.18        3334.50           6668         155.00       673.51
  161.21        3334.75           6672         159.00       690.95
  161.25        3335.00           6676         176.00       765.06
  161.27        3335.25           6679         212.00       922.00
  161.30        3335.50           6683         235.00      1022.27
  161.33        3335.75           6687         496.00      2160.13
  161.36        3336.00           6691        1977.00      8618.33
  161.39        3336.25           6694        4759.00     20757.03
  161.42        3336.50           6698       10363.00     45237.63
  161.45        3336.75           6702       16862.00     73676.12
  161.47        3337.00           6706       23520.00    102864.20
  161.51        3337.25           6709       28321.00    123945.30
  161.54        3337.50           6713       35044.00    153513.90
  161.57        3337.75           6717       41501.00    181965.40
  161.60        3338.00           6721       47941.00    210393.90
  161.63        3338.25           6724       52432.00    230249.50
  161.66        3338.50           6728       59411.00    261155.50
  161.68        3338.75           6732       66070.00    290701.80
  161.72        3339.00           6736       72829.00    320749.20
  161.75        3339.25           6739       77565.00    341837.90
  161.77        3339.50           6743       84218.00    371511.30
  161.81        3339.75           6747       90748.00    400691.20
  161.84        3340.00           6751       97660.00    431638.10
  161.86        3340.25           6754      103046.00    455795.50
  161.90        3340.50           6758      109905.00    486614.20
  161.92        3340.75           6762      115517.00    511875.60
  161.95        3341.00           6766      119350.00    529152.80
  161.99        3341.25           6769      121102.00    537056.30
  162.01        3341.50           6773      121583.00    539226.90
  162.04        3341.75           6777      119399.00    529373.80
  162.08        3342.00           6781      114869.00    508956.60
  162.10        3342.25           6784      110210.00    487986.10
  162.13        3342.50           6788      103288.00    456881.80
  162.16        3342.75           6792       96945.00    428434.00
  162.19        3343.00           6795       91744.00    405146.80
  162.22        3343.25           6799       85615.00    377749.30
  162.25        3343.50           6803       79130.00    348813.00
  162.28        3343.75           6807       72184.00    317879.30
  162.31        3344.00           6811       65925.00    290057.80
  162.34        3344.25           6814       61362.00    269806.40
  162.37        3344.50           6818       54708.00    240321.90
  162.40        3344.75           6822       47313.00    207619.40
  162.43        3345.00           6826       40309.00    176709.10
  162.46        3345.25           6829       34986.00    153258.50
  162.49        3345.50           6833       28036.00    122693.10
  162.52        3345.75           6837       21021.00     91902.40
  162.55        3346.00           6841       14070.00     61452.46
  162.58        3346.25           6844        9126.00     39830.60
  162.61        3346.50           6848        4143.00     18068.42
  162.64        3346.75           6852        1390.00      6058.28
  162.67        3347.00           6856         481.00      2094.74
  162.69        3347.25           6859         279.00      1214.08
  162.73        3347.50           6863         208.00       904.56
  162.76        3347.75           6867         191.00       830.45
  162.78        3348.00           6871         162.00       704.03
  162.82        3348.25           6874         145.00       629.92
  162.84        3348.50           6878         159.00       690.95
  162.87        3348.75           6882         141.00       612.48
  162.90        3349.00           6886         164.00       712.75
  162.93        3349.25           6889         144.00       625.56
  162.96        3349.50           6893         147.00       638.64
  162.99        3349.75           6897         149.00       647.35
  163.02        3350.00           6901         142.00       616.84
  163.05        3350.25           6904         162.00       704.03
  163.08        3350.50           6908         131.00       568.89
  163.11        3350.75           6912         137.00       595.04
  163.14        3351.00           6916         151.00       656.07
HL scan finished at 02:45:04
end
