************************************************************
  HL Scan of (1) Internal mercury lamp
************************************************************
Integration time is 0.2294 seconds per sample
dh200619El Arenosillo 37.1 6.73 2.96pr1000
************************************************************
Dead Time -------------------------  3.2E-08 
Number of Cycles Used -------------  4 
Starting Wavelength (Angstroms) ---  3331 
Final Wavelength (Angstoms) -------  3351 
Wavelength Increment (Angstroms) --  .25 
Filter Wheel #1 Position ---------- (1) Ground quartz diffuser (ND=2.32)
Filter Wheel #2 Position ---------- 



************************************************************
HL scan start time = 03:48:56
Dark Count =  2.1 


Time (GMT)  Wavelength (Ang)  Step Number  Raw Counts  Counts/Second

  230.38        3331.00           6616         152.00       653.46
  231.42        3331.25           6620         154.00       662.18
  231.45        3331.50           6623         146.00       627.30
  231.47        3331.75           6627         160.00       688.33
  231.51        3332.00           6631         154.00       662.18
  231.53        3332.25           6635         161.00       692.69
  231.56        3332.50           6638         148.00       636.02
  231.60        3332.75           6642         168.00       723.21
  231.62        3333.00           6646         160.00       688.33
  231.65        3333.25           6649         178.00       766.80
  231.68        3333.50           6653         151.00       649.10
  231.71        3333.75           6657         157.00       675.25
  231.74        3334.00           6661         159.00       683.97
  231.76        3334.25           6664         150.00       644.74
  231.80        3334.50           6668         165.00       710.13
  231.83        3334.75           6672         178.00       766.80
  231.85        3335.00           6676         204.00       880.15
  231.89        3335.25           6679         248.00      1071.96
  231.92        3335.50           6683         369.00      1599.47
  231.94        3335.75           6687        1074.00      4673.32
  231.97        3336.00           6691        3506.00     15281.66
  232.00        3336.25           6694        7097.00     30958.73
  232.03        3336.50           6698       15076.00     65848.73
  232.06        3336.75           6702       25038.00    109519.60
  232.09        3337.00           6706       35316.00    154704.30
  232.12        3337.25           6709       43321.00    189987.20
  232.15        3337.50           6713       53190.00    233596.20
  232.18        3337.75           6717       63294.00    278370.60
  232.21        3338.00           6721       73321.00    322931.50
  232.24        3338.25           6724       80316.00    354093.80
  232.27        3338.50           6728       89643.00    395742.50
  232.30        3338.75           6732       99380.00    439341.40
  232.33        3339.00           6736      108458.00    480100.30
  232.36        3339.25           6739      115728.00    512818.90
  232.39        3339.50           6743      125531.00    557047.00
  232.41        3339.75           6747      135508.00    602190.30
  232.44        3340.00           6751      144804.00    644371.00
  232.48        3340.25           6754      152491.00    679338.00
  232.50        3340.50           6758      161600.00    720876.10
  232.53        3340.75           6762      169385.00    756465.50
  232.57        3341.00           6766      175193.00    783070.50
  232.59        3341.25           6769      177672.00    794440.10
  232.62        3341.50           6773      177701.00    794573.10
  232.66        3341.75           6777      174442.00    779627.70
  232.68        3342.00           6781      167313.00    746985.30
  232.71        3342.25           6784      160793.00    717191.60
  232.74        3342.50           6788      151009.00    672590.40
  232.77        3342.75           6792      141590.00    629774.50
  232.80        3343.00           6795      133994.00    595331.30
  232.82        3343.25           6799      123891.00    549639.10
  232.86        3343.50           6803      113602.00    503243.70
  232.89        3343.75           6807      103698.00    458715.30
  232.92        3344.00           6811       93475.00    412886.20
  232.95        3344.25           6814       85896.00    378997.20
  232.98        3344.50           6818       75611.00    333126.50
  233.01        3344.75           6822       65807.00    289526.60
  233.04        3345.00           6826       56689.00    249087.00
  233.07        3345.25           6829       49484.00    217205.90
  233.10        3345.50           6833       39855.00    174700.60
  233.13        3345.75           6837       30787.00    134777.50
  233.16        3346.00           6841       21728.00     94995.84
  233.19        3346.25           6844       14256.00     62259.49
  233.22        3346.50           6848        6726.00     29338.34
  233.25        3346.75           6852        2259.00      9841.37
  233.28        3347.00           6856         654.00      2842.02
  233.30        3347.25           6859         419.00      1817.46
  233.34        3347.50           6863         311.00      1346.61
  233.37        3347.75           6867         286.00      1237.63
  233.39        3348.00           6871         251.00      1085.04
  233.42        3348.25           6874         261.00      1128.64
  233.45        3348.50           6878         211.00       910.66
  233.48        3348.75           6882         190.00       819.11
  233.51        3349.00           6886         181.00       779.88
  233.55        3349.25           6889         168.00       723.21
  233.57        3349.50           6893         181.00       779.88
  233.60        3349.75           6897         190.00       819.11
  233.64        3350.00           6901         175.00       753.72
  233.66        3350.25           6904         176.00       758.08
  233.69        3350.50           6908         172.00       740.65
  233.72        3350.75           6912         165.00       710.13
  233.76        3351.00           6916         188.00       810.40
HL scan finished at 03:55:41
end
