************************************************************
  HL Scan of (1) Internal mercury lamp
************************************************************
Integration time is 0.2294 seconds per sample
dh220619El Arenosillo 37.1 6.73 3.07pr1000
************************************************************
Dead Time -------------------------  3.2E-08 
Number of Cycles Used -------------  4 
Starting Wavelength (Angstroms) ---  3331 
Final Wavelength (Angstoms) -------  3351 
Wavelength Increment (Angstroms) --  .25 
Filter Wheel #1 Position ---------- (1) Ground quartz diffuser (ND=2.32)
Filter Wheel #2 Position ---------- 



************************************************************
HL scan start time = 01:24:13
Dark Count =  1.6 


Time (GMT)  Wavelength (Ang)  Step Number  Raw Counts  Counts/Second

   85.66        3331.00           6616         106.00       455.11
   86.70        3331.25           6620          93.00       398.44
   86.72        3331.50           6623         131.00       564.09
   86.75        3331.75           6627         121.00       520.50
   86.78        3332.00           6631         101.00       433.31
   86.81        3332.25           6635          96.00       411.51
   86.84        3332.50           6638         115.00       494.34
   86.87        3332.75           6642         101.00       433.31
   86.90        3333.00           6646         103.00       442.03
   86.93        3333.25           6649          93.00       398.44
   86.96        3333.50           6653          97.00       415.87
   86.99        3333.75           6657         109.00       468.18
   87.02        3334.00           6661         140.00       603.32
   87.05        3334.25           6664         129.00       555.37
   87.08        3334.50           6668         126.00       542.29
   87.11        3334.75           6672         158.00       681.79
   87.14        3335.00           6676         148.00       638.20
   87.17        3335.25           6679         157.00       677.43
   87.20        3335.50           6683         185.00       799.50
   87.23        3335.75           6687         252.00      1091.58
   87.26        3336.00           6691         865.00      3764.19
   87.29        3336.25           6694        2259.00      9843.55
   87.31        3336.50           6698        5957.00     25982.36
   87.35        3336.75           6702       11066.00     48306.53
   87.37        3337.00           6706       16459.00     71906.34
   87.40        3337.25           6709       20920.00     91454.71
   87.43        3337.50           6713       26585.00    116314.40
   87.46        3337.75           6717       32327.00    141552.60
   87.49        3338.00           6721       37919.00    166170.70
   87.53        3338.25           6724       41914.00    183782.10
   87.55        3338.50           6728       47418.00    208078.40
   87.58        3338.75           6732       52498.00    230536.70
   87.62        3339.00           6736       58346.00    256430.40
   87.65        3339.25           6739       62864.00    276464.70
   87.67        3339.50           6743       68604.00    301955.00
   87.70        3339.75           6747       74848.00    329731.10
   87.73        3340.00           6751       80597.00    355349.20
   87.76        3340.25           6754       84884.00    374479.90
   87.78        3340.50           6758       90647.00    400234.60
   87.82        3340.75           6762       96441.00    426170.90
   87.85        3341.00           6766       99915.00    441742.70
   87.87        3341.25           6769      102255.00    452240.40
   87.91        3341.50           6773      103180.00    456392.10
   87.94        3341.75           6777      101735.00    449907.00
   87.96        3342.00           6781       98390.00    434905.20
   88.00        3342.25           6784       95015.00    419783.50
   88.02        3342.50           6788       89879.00    396799.90
   88.05        3342.75           6792       84424.00    372426.00
   88.08        3343.00           6795       79979.00    352593.30
   88.11        3343.25           6799       74770.00    329383.80
   88.14        3343.50           6803       68917.00    303346.20
   88.18        3343.75           6807       63099.00    277507.50
   88.20        3344.00           6811       57457.00    252491.30
   88.23        3344.25           6814       52778.00    231775.50
   88.26        3344.50           6818       46532.00    204164.70
   88.30        3344.75           6822       40607.00    178018.20
   88.32        3345.00           6826       34852.00    152663.80
   88.36        3345.25           6829       30766.00    134687.40
   88.39        3345.50           6833       24977.00    109254.00
   88.42        3345.75           6837       19438.00     84957.78
   88.44        3346.00           6841       14111.00     61627.08
   88.48        3346.25           6844       10048.00     43855.76
   88.51        3346.50           6848        5101.00     22245.13
   88.54        3346.75           6852        1950.00      8495.77
   88.57        3347.00           6856         605.00      2630.56
   88.60        3347.25           6859         293.00      1270.32
   88.62        3347.50           6863         199.00       860.53
   88.66        3347.75           6867         176.00       760.26
   88.69        3348.00           6871         160.00       690.51
   88.71        3348.25           6874         149.00       642.56
   88.75        3348.50           6878         123.00       529.22
   88.78        3348.75           6882         154.00       664.36
   88.80        3349.00           6886         128.00       551.01
   88.84        3349.25           6889         107.00       459.47
   88.87        3349.50           6893         112.00       481.26
   88.89        3349.75           6897         134.00       577.17
   88.92        3350.00           6901         113.00       485.62
   88.95        3350.25           6904         104.00       446.39
   88.98        3350.50           6908         130.00       559.73
   89.01        3350.75           6912         121.00       520.50
   89.04        3351.00           6916         124.00       533.57
HL scan finished at 01:30:59
end
************************************************************
  HL Scan of (1) Internal mercury lamp
************************************************************
Integration time is 0.2294 seconds per sample
dh220619El Arenosillo 37.1 6.73 3.03pr1000
************************************************************
Dead Time -------------------------  3.2E-08 
Number of Cycles Used -------------  4 
Starting Wavelength (Angstroms) ---  3331 
Final Wavelength (Angstoms) -------  3351 
Wavelength Increment (Angstroms) --  .25 
Filter Wheel #1 Position ---------- (1) Ground quartz diffuser (ND=2.32)
Filter Wheel #2 Position ---------- 



************************************************************
HL scan start time = 21:50:17
Dark Count =  1.4 


Time (GMT)  Wavelength (Ang)  Step Number  Raw Counts  Counts/Second

 1311.74        3331.00           6616          91.00       390.59
 1312.77        3331.25           6620         108.00       464.70
 1312.80        3331.50           6623         113.00       486.49
 1312.83        3331.75           6627          93.00       399.31
 1312.86        3332.00           6631          93.00       399.31
 1312.88        3332.25           6635          91.00       390.59
 1312.91        3332.50           6638         101.00       434.18
 1312.94        3332.75           6642          84.00       360.07
 1312.97        3333.00           6646          93.00       399.31
 1313.00        3333.25           6649          91.00       390.59
 1313.03        3333.50           6653          91.00       390.59
 1313.05        3333.75           6657          94.00       403.67
 1313.08        3334.00           6661          94.00       403.67
 1313.11        3334.25           6664         104.00       447.26
 1313.14        3334.50           6668          96.00       412.39
 1313.17        3334.75           6672         109.00       469.06
 1313.20        3335.00           6676         135.00       582.40
 1313.22        3335.25           6679         152.00       656.51
 1313.25        3335.50           6683         163.00       704.46
 1313.28        3335.75           6687         273.00      1184.00
 1313.30        3336.00           6691        1007.00      4384.22
 1313.33        3336.25           6694        2673.00     11650.38
 1313.36        3336.50           6698        6637.00     28952.71
 1313.39        3336.75           6702       11253.00     49125.11
 1313.42        3337.00           6706       16363.00     71486.80
 1313.45        3337.25           6709       20192.00     88263.77
 1313.47        3337.50           6713       25151.00    110018.70
 1313.50        3337.75           6717       30459.00    133338.40
 1313.53        3338.00           6721       35788.00    156785.50
 1313.56        3338.25           6724       39682.00    173941.10
 1313.59        3338.50           6728       45174.00    198169.00
 1313.62        3338.75           6732       50050.00    219711.10
 1313.65        3339.00           6736       54783.00    240649.90
 1313.68        3339.25           6739       58522.00    257211.30
 1313.70        3339.50           6743       63514.00    279350.10
 1313.73        3339.75           6747       68797.00    302813.80
 1313.76        3340.00           6751       73663.00    324456.80
 1313.79        3340.25           6754       77965.00    343616.40
 1313.82        3340.50           6758       83251.00    367190.80
 1313.84        3340.75           6762       88178.00    389196.40
 1313.87        3341.00           6766       91522.00    404149.60
 1313.90        3341.25           6769       93246.00    411864.30
 1313.93        3341.50           6773       93720.00    413986.10
 1313.96        3341.75           6777       92592.00    408937.30
 1313.99        3342.00           6781       89391.00    394618.80
 1314.01        3342.25           6784       85880.00    378928.90
 1314.04        3342.50           6788       81250.00    358262.60
 1314.07        3342.75           6792       76710.00    338024.60
 1314.10        3343.00           6795       73024.00    321612.90
 1314.12        3343.25           6799       67594.00    297467.70
 1314.15        3343.50           6803       62726.00    275853.30
 1314.18        3343.75           6807       57600.00    253125.80
 1314.21        3344.00           6811       52226.00    229334.20
 1314.24        3344.25           6814       48302.00    211985.00
 1314.27        3344.50           6818       42775.00    187581.20
 1314.30        3344.75           6822       37144.00    162757.40
 1314.32        3345.00           6826       31703.00    138808.80
 1314.35        3345.25           6829       28047.00    122737.40
 1314.38        3345.50           6833       22653.00     99056.29
 1314.41        3345.75           6837       17575.00     76795.29
 1314.44        3346.00           6841       12374.00     54027.95
 1314.47        3346.25           6844        8388.00     36601.69
 1314.49        3346.50           6848        4212.00     18365.63
 1314.52        3346.75           6852        1563.00      6808.81
 1314.55        3347.00           6856         501.00      2178.01
 1314.58        3347.25           6859         283.00      1227.60
 1314.61        3347.50           6863         176.00       761.13
 1314.64        3347.75           6867         150.00       647.79
 1314.66        3348.00           6871         140.00       604.20
 1314.69        3348.25           6874         123.00       530.09
 1314.72        3348.50           6878         130.00       560.60
 1314.75        3348.75           6882         120.00       517.01
 1314.78        3349.00           6886          99.00       425.46
 1314.80        3349.25           6889         100.00       429.82
 1314.83        3349.50           6893         105.00       451.62
 1314.86        3349.75           6897         105.00       451.62
 1314.89        3350.00           6901         117.00       503.93
 1314.92        3350.25           6904         122.00       525.73
 1314.94        3350.50           6908         103.00       442.90
 1314.97        3350.75           6912         106.00       455.98
 1315.00        3351.00           6916          95.00       408.03
HL scan finished at 21:56:56
end
