************************************************************
  HL Scan of (1) Internal mercury lamp
************************************************************
Integration time is 0.2294 seconds per sample
dh190619El Arenosillo 37.1 6.73 3.09pr1000
************************************************************
Dead Time -------------------------  3.2E-08 
Number of Cycles Used -------------  4 
Starting Wavelength (Angstroms) ---  3331 
Final Wavelength (Angstoms) -------  3351 
Wavelength Increment (Angstroms) --  .25 
Filter Wheel #1 Position ---------- (1) Ground quartz diffuser (ND=2.32)
Filter Wheel #2 Position ---------- 



************************************************************
HL scan start time = 02:39:13
Dark Count =  4.9 


Time (GMT)  Wavelength (Ang)  Step Number  Raw Counts  Counts/Second

  160.67        3331.00           6616         157.00       663.05
  161.71        3331.25           6620         146.00       615.10
  161.73        3331.50           6623         148.00       623.81
  161.76        3331.75           6627         136.00       571.50
  161.79        3332.00           6631         120.00       501.75
  161.82        3332.25           6635         130.00       545.35
  161.85        3332.50           6638         117.00       488.67
  161.87        3332.75           6642         127.00       532.27
  161.91        3333.00           6646         136.00       571.50
  161.93        3333.25           6649         139.00       584.58
  161.96        3333.50           6653         151.00       636.89
  162.00        3333.75           6657         129.00       540.99
  162.02        3334.00           6661         140.00       588.94
  162.05        3334.25           6664         129.00       540.99
  162.08        3334.50           6668         141.00       593.30
  162.11        3334.75           6672         134.00       562.78
  162.14        3335.00           6676         156.00       658.69
  162.17        3335.25           6679         181.00       767.67
  162.20        3335.50           6683         210.00       894.10
  162.23        3335.75           6687         358.00      1539.31
  162.26        3336.00           6691        1227.00      5328.28
  162.29        3336.25           6694        3360.00     14632.40
  162.32        3336.50           6698        8850.00     38605.20
  162.35        3336.75           6702       15227.00     66497.50
  162.37        3337.00           6706       22042.00     96360.76
  162.41        3337.25           6709       27166.00    118851.80
  162.43        3337.50           6713       34400.00    150659.70
  162.46        3337.75           6717       40878.00    179198.60
  162.49        3338.00           6721       47836.00    209910.50
  162.52        3338.25           6724       52733.00    231561.80
  162.55        3338.50           6728       59295.00    260621.80
  162.58        3338.75           6732       66113.00    290873.20
  162.62        3339.00           6736       72727.00    320275.70
  162.65        3339.25           6739       77750.00    342642.70
  162.67        3339.50           6743       84238.00    371581.00
  162.71        3339.75           6747       91104.00    402264.00
  162.74        3340.00           6751       97518.00    430982.00
  162.76        3340.25           6754      102911.00    455169.80
  162.79        3340.50           6758      109851.00    486351.50
  162.82        3340.75           6762      116428.00    515960.30
  162.85        3341.00           6766      121469.00    538692.60
  162.88        3341.25           6769      123283.00    546881.00
  162.91        3341.50           6773      124236.00    551184.50
  162.94        3341.75           6777      122308.00    542479.30
  162.97        3342.00           6781      117904.00    522612.80
  163.00        3342.25           6784      113451.00    502551.20
  163.03        3342.50           6788      107376.00    475224.10
  163.06        3342.75           6792      100913.00    446204.30
  163.09        3343.00           6795       95502.00    421949.80
  163.12        3343.25           6799       88992.00    392819.30
  163.15        3343.50           6803       81732.00    360397.10
  163.18        3343.75           6807       75144.00    331034.40
  163.21        3344.00           6811       67963.00    299091.80
  163.24        3344.25           6814       62969.00    276916.00
  163.27        3344.50           6818       56088.00    246412.70
  163.30        3344.75           6822       49070.00    215363.60
  163.33        3345.00           6826       42274.00    185355.60
  163.36        3345.25           6829       37404.00    163887.40
  163.39        3345.50           6833       30579.00    133850.60
  163.42        3345.75           6837       23538.00    102923.90
  163.45        3346.00           6841       16613.00     72566.31
  163.47        3346.25           6844       11239.00     49048.59
  163.50        3346.50           6848        5208.00     22697.83
  163.54        3346.75           6852        1772.00      7705.04
  163.56        3347.00           6856         552.00      2385.10
  163.59        3347.25           6859         314.00      1347.49
  163.63        3347.50           6863         257.00      1098.99
  163.65        3347.75           6867         181.00       767.67
  163.68        3348.00           6871         169.00       715.36
  163.71        3348.25           6874         157.00       663.05
  163.74        3348.50           6878         161.00       680.49
  163.77        3348.75           6882         164.00       693.56
  163.80        3349.00           6886         135.00       567.14
  163.83        3349.25           6889         151.00       636.89
  163.86        3349.50           6893         151.00       636.89
  163.89        3349.75           6897         120.00       501.75
  163.92        3350.00           6901         151.00       636.89
  163.95        3350.25           6904         165.00       697.92
  163.98        3350.50           6908         147.00       619.45
  164.01        3350.75           6912         136.00       571.50
  164.04        3351.00           6916         133.00       558.42
HL scan finished at 02:45:59
end
************************************************************
  HL Scan of (1) Internal mercury lamp
************************************************************
Integration time is 0.2294 seconds per sample
dh190619El Arenosillo 37.1 6.73 3.03pr1000
************************************************************
Dead Time -------------------------  3.2E-08 
Number of Cycles Used -------------  4 
Starting Wavelength (Angstroms) ---  3331 
Final Wavelength (Angstoms) -------  3351 
Wavelength Increment (Angstroms) --  .25 
Filter Wheel #1 Position ---------- (1) Ground quartz diffuser (ND=2.32)
Filter Wheel #2 Position ---------- 



************************************************************
HL scan start time = 21:56:53
Dark Count =  2.8 


Time (GMT)  Wavelength (Ang)  Step Number  Raw Counts  Counts/Second

 1318.33        3331.00           6616         142.00       606.81
 1319.37        3331.25           6620         137.00       585.02
 1319.40        3331.50           6623         145.00       619.89
 1319.43        3331.75           6627         150.00       641.69
 1319.46        3332.00           6631         156.00       667.84
 1319.48        3332.25           6635         168.00       720.16
 1319.51        3332.50           6638         129.00       550.14
 1319.54        3332.75           6642         140.00       598.09
 1319.57        3333.00           6646         148.00       632.97
 1319.60        3333.25           6649         148.00       632.97
 1319.62        3333.50           6653         139.00       593.73
 1319.66        3333.75           6657         145.00       619.89
 1319.69        3334.00           6661         154.00       659.12
 1319.71        3334.25           6664         144.00       615.53
 1319.74        3334.50           6668         166.00       711.44
 1319.77        3334.75           6672         161.00       689.64
 1319.80        3335.00           6676         188.00       807.34
 1319.83        3335.25           6679         212.00       911.97
 1319.86        3335.50           6683         310.00      1339.20
 1319.89        3335.75           6687         740.00      3213.93
 1319.92        3336.00           6691        2575.00     11216.76
 1319.95        3336.25           6694        5499.00     23977.42
 1319.98        3336.50           6698       11605.00     50658.35
 1320.00        3336.75           6702       19083.00     83396.63
 1320.03        3337.00           6706       27148.00    118781.90
 1320.06        3337.25           6709       33670.00    147456.10
 1320.09        3337.50           6713       41999.00    184151.80
 1320.12        3337.75           6717       50472.00    221570.70
 1320.15        3338.00           6721       58809.00    258477.00
 1320.18        3338.25           6724       64948.00    285709.20
 1320.21        3338.50           6728       72874.00    320939.20
 1320.24        3338.75           6732       81359.00    358742.50
 1320.27        3339.00           6736       89696.00    395976.30
 1320.30        3339.25           6739       96047.00    424400.40
 1320.33        3339.50           6743      103686.00    458658.20
 1320.36        3339.75           6747      111938.00    495750.30
 1320.39        3340.00           6751      120096.00    532507.30
 1320.42        3340.25           6754      125871.00    558580.10
 1320.44        3340.50           6758      133701.00    594001.10
 1320.48        3340.75           6762      141360.00    628727.20
 1320.50        3341.00           6766      145725.00    648553.10
 1320.53        3341.25           6769      147444.00    656367.80
 1320.56        3341.50           6773      147323.00    655817.60
 1320.59        3341.75           6777      145021.00    645353.80
 1320.62        3342.00           6781      139015.00    618086.60
 1320.65        3342.25           6784      133754.00    594241.20
 1320.67        3342.50           6788      126611.00    561924.30
 1320.70        3342.75           6792      118526.00    525426.60
 1320.73        3343.00           6795      111707.00    494710.80
 1320.76        3343.25           6799      103612.00    458326.00
 1320.79        3343.50           6803       94473.00    417351.10
 1320.82        3343.75           6807       85526.00    377341.50
 1320.85        3344.00           6811       77301.00    340651.40
 1320.88        3344.25           6814       70680.00    311179.20
 1320.91        3344.50           6818       62649.00    275505.40
 1320.94        3344.75           6822       54404.00    238966.00
 1320.97        3345.00           6826       46750.00    205122.30
 1320.99        3345.25           6829       40671.00    178295.10
 1321.03        3345.50           6833       32588.00    142695.40
 1321.06        3345.75           6837       24446.00    106917.90
 1321.08        3346.00           6841       16590.00     72474.77
 1321.11        3346.25           6844       10961.00     47842.15
 1321.14        3346.50           6848        4806.00     20952.15
 1321.17        3346.75           6852        1598.00      6955.34
 1321.20        3347.00           6856         518.00      2246.02
 1321.23        3347.25           6859         388.00      1679.25
 1321.26        3347.50           6863         280.00      1208.42
 1321.29        3347.75           6867         268.00      1156.10
 1321.32        3348.00           6871         210.00       903.25
 1321.35        3348.25           6874         185.00       794.27
 1321.37        3348.50           6878         176.00       755.03
 1321.40        3348.75           6882         158.00       676.56
 1321.44        3349.00           6886         159.00       680.92
 1321.46        3349.25           6889         170.00       728.87
 1321.49        3349.50           6893         179.00       768.11
 1321.52        3349.75           6897         159.00       680.92
 1321.55        3350.00           6901         151.00       646.05
 1321.58        3350.25           6904         163.00       698.36
 1321.61        3350.50           6908         151.00       646.05
 1321.64        3350.75           6912         150.00       641.69
 1321.66        3351.00           6916         151.00       646.05
HL scan finished at 22:03:36
end
