************************************************************
  HL Scan of (1) Internal mercury lamp
************************************************************
Integration time is 0.2294 seconds per sample
dh220618El Arenosillo 37.1 6.73 3.05pr1000
************************************************************
Dead Time -------------------------  3.2E-08 
Number of Cycles Used -------------  4 
Starting Wavelength (Angstroms) ---  3331 
Final Wavelength (Angstoms) -------  3351 
Wavelength Increment (Angstroms) --  .25 
Filter Wheel #1 Position ---------- (1) Ground quartz diffuser (ND=2.32)
Filter Wheel #2 Position ---------- 



************************************************************
HL scan start time = 01:27:24
Dark Count =  .7 


Time (GMT)  Wavelength (Ang)  Step Number  Raw Counts  Counts/Second

   88.85        3331.00           6616         149.00       646.48
   89.89        3331.25           6620         163.00       707.51
   89.92        3331.50           6623         141.00       611.61
   89.94        3331.75           6627         162.00       703.15
   89.98        3332.00           6631         139.00       602.89
   90.00        3332.25           6635         141.00       611.61
   90.03        3332.50           6638         134.00       581.09
   90.06        3332.75           6642         154.00       668.28
   90.09        3333.00           6646         145.00       629.05
   90.12        3333.25           6649         157.00       681.36
   90.14        3333.50           6653         134.00       581.09
   90.18        3333.75           6657         161.00       698.80
   90.21        3334.00           6661         154.00       668.28
   90.23        3334.25           6664         159.00       690.08
   90.27        3334.50           6668         185.00       803.42
   90.29        3334.75           6672         193.00       838.30
   90.32        3335.00           6676         241.00      1047.55
   90.35        3335.25           6679         272.00      1182.70
   90.38        3335.50           6683         286.00      1243.73
   90.41        3335.75           6687         562.00      2447.01
   90.44        3336.00           6691        2095.00      9132.14
   90.47        3336.25           6694        5325.00     23226.93
   90.50        3336.50           6698       12997.00     56756.43
   90.52        3336.75           6702       21960.00     96019.52
   90.56        3337.00           6706       31722.00    138895.40
   90.58        3337.25           6709       39285.00    172194.30
   90.61        3337.50           6713       49529.00    217411.00
   90.64        3337.75           6717       59539.00    261722.00
   90.68        3338.00           6721       70727.00    311397.50
   90.70        3338.25           6724       78856.00    347590.60
   90.73        3338.50           6728       89670.00    395869.40
   90.77        3338.75           6732      100514.00    444433.30
   90.80        3339.00           6736      111121.00    492083.40
   90.82        3339.25           6739      119062.00    527853.00
   90.86        3339.50           6743      129435.00    574702.30
   90.89        3339.75           6747      140138.00    623191.00
   90.91        3340.00           6751      150858.00    671909.40
   90.94        3340.25           6754      158360.00    706094.90
   90.97        3340.50           6758      169271.00    755950.10
   91.00        3340.75           6762      178605.00    798727.70
   91.03        3341.00           6766      184691.00    826683.80
   91.06        3341.25           6769      187444.00    839346.40
   91.09        3341.50           6773      187855.00    841237.80
   91.12        3341.75           6777      185679.00    831227.00
   91.15        3342.00           6781      179791.00    804171.70
   91.18        3342.25           6784      172620.00    771284.80
   91.21        3342.50           6788      162521.00    725088.60
   91.24        3342.75           6792      151921.00    676748.80
   91.27        3343.00           6795      143709.00    639402.80
   91.30        3343.25           6799      133123.00    591393.00
   91.33        3343.50           6803      121983.00    541031.30
   91.36        3343.75           6807      111430.00    493473.70
   91.39        3344.00           6811      100485.00    444303.20
   91.42        3344.25           6814       93203.00    411675.00
   91.45        3344.50           6818       82331.00    363088.30
   91.48        3344.75           6822       72424.00    318946.20
   91.51        3345.00           6826       62219.00    273607.00
   91.53        3345.25           6829       54333.00    238661.00
   91.57        3345.50           6833       43190.00    189415.40
   91.60        3345.75           6837       32555.00    142559.50
   91.62        3346.00           6841       21596.00     94423.07
   91.66        3346.25           6844       13882.00     60628.85
   91.69        3346.50           6848        6261.00     27313.75
   91.72        3346.75           6852        1997.00      8704.69
   91.75        3347.00           6856         637.00      2774.00
   91.78        3347.25           6859         406.00      1766.88
   91.80        3347.50           6863         289.00      1256.81
   91.83        3347.75           6867         253.00      1099.86
   91.87        3348.00           6871         193.00       838.30
   91.89        3348.25           6874         184.00       799.06
   91.92        3348.50           6878         181.00       785.98
   91.95        3348.75           6882         166.00       720.59
   91.98        3349.00           6886         168.00       729.31
   92.01        3349.25           6889         169.00       733.67
   92.04        3349.50           6893         181.00       785.98
   92.07        3349.75           6897         172.00       746.75
   92.10        3350.00           6901         168.00       729.31
   92.12        3350.25           6904         161.00       698.80
   92.16        3350.50           6908         171.00       742.39
   92.19        3350.75           6912         168.00       729.31
   92.21        3351.00           6916         171.00       742.39
HL scan finished at 01:34:09
end
