************************************************************
  HL Scan of (1) Internal mercury lamp
************************************************************
Integration time is 0.2294 seconds per sample
dh220617El Arenosillo 37.1 6.73 2.98pr1000
************************************************************
Dead Time -------------------------  3.2E-08 
Number of Cycles Used -------------  4 
Starting Wavelength (Angstroms) ---  3331 
Final Wavelength (Angstoms) -------  3351 
Wavelength Increment (Angstroms) --  .25 
Filter Wheel #1 Position ---------- (1) Ground quartz diffuser (ND=2.32)
Filter Wheel #2 Position ---------- 



************************************************************
HL scan start time = 01:28:55
Dark Count =  1.1 


Time (GMT)  Wavelength (Ang)  Step Number  Raw Counts  Counts/Second

   90.36        3331.00           6616         251.00      1089.40
   91.40        3331.25           6620         271.00      1176.59
   91.42        3331.50           6623         235.00      1019.65
   91.45        3331.75           6627         255.00      1106.84
   91.48        3332.00           6631         239.00      1037.09
   91.51        3332.25           6635         262.00      1137.36
   91.54        3332.50           6638         265.00      1150.43
   91.57        3332.75           6642         282.00      1224.55
   91.60        3333.00           6646         244.00      1058.89
   91.63        3333.25           6649         237.00      1028.37
   91.66        3333.50           6653         254.00      1102.48
   91.69        3333.75           6657         237.00      1028.37
   91.72        3334.00           6661         299.00      1298.66
   91.74        3334.25           6664         274.00      1189.67
   91.77        3334.50           6668         305.00      1324.82
   91.80        3334.75           6672         311.00      1350.97
   91.83        3335.00           6676         345.00      1499.20
   91.86        3335.25           6679         409.00      1778.22
   91.89        3335.50           6683         462.00      2009.28
   91.92        3335.75           6687         594.00      2584.78
   91.94        3336.00           6691        3040.00     13252.79
   91.96        3336.25           6694        7273.00     31731.86
   92.00        3336.50           6698       18234.00     79683.75
   92.03        3336.75           6702       32146.00    140758.60
   92.05        3337.00           6706       45516.00    199680.30
   92.09        3337.25           6709       55759.00    244972.60
   92.11        3337.50           6713       69534.00    306091.20
   92.14        3337.75           6717       82496.00    363822.80
   92.17        3338.00           6721       96112.00    424699.30
   92.20        3338.25           6724      105402.00    466371.80
   92.23        3338.50           6728      118825.00    526782.50
   92.26        3338.75           6732      131563.00    584329.00
   92.29        3339.00           6736      146225.00    650833.50
   92.32        3339.25           6739      155048.00    690991.60
   92.35        3339.50           6743      168612.00    752932.50
   92.38        3339.75           6747      181983.00    814236.60
   92.42        3340.00           6751      194573.00    872183.40
   92.44        3340.25           6754      204334.00    917260.00
   92.47        3340.50           6758      218065.00    980894.50
   92.51        3340.75           6762      230397.00   1038271.00
   92.53        3341.00           6766      240036.00   1083267.00
   92.56        3341.25           6769      245246.00   1107644.00
   92.59        3341.50           6773      248100.00   1121013.00
   92.62        3341.75           6777      246344.00   1112786.00
   92.65        3342.00           6781      240273.00   1084375.00
   92.67        3342.25           6784      232889.00   1049891.00
   92.71        3342.50           6788      219324.00    986742.40
   92.74        3342.75           6792      206057.00    925230.60
   92.76        3343.00           6795      196450.00    880841.20
   92.79        3343.25           6799      182401.00    816157.00
   92.82        3343.50           6803      168483.00    752342.30
   92.85        3343.75           6807      154594.00    688922.60
   92.88        3344.00           6811      141172.00    627881.60
   92.91        3344.25           6814      131535.00    584202.30
   92.94        3344.50           6818      118683.00    526142.20
   92.97        3344.75           6822      105136.00    465177.10
   93.00        3345.00           6826       91570.00    404365.60
   93.04        3345.25           6829       80575.00    355253.30
   93.06        3345.50           6833       66795.00    293919.40
   93.09        3345.75           6837       52054.00    228574.70
   93.12        3346.00           6841       37582.00    164688.20
   93.15        3346.25           6844       26664.00    116663.60
   93.18        3346.50           6848       14245.00     62215.73
   93.21        3346.75           6852        5714.00     24923.53
   93.24        3347.00           6856        1763.00      7682.36
   93.27        3347.25           6859         852.00      3709.68
   93.30        3347.50           6863         518.00      2253.43
   93.33        3347.75           6867         426.00      1852.33
   93.36        3348.00           6871         358.00      1555.88
   93.39        3348.25           6874         337.00      1464.32
   93.42        3348.50           6878         295.00      1281.22
   93.45        3348.75           6882         288.00      1250.70
   93.48        3349.00           6886         301.00      1307.38
   93.51        3349.25           6889         286.00      1241.98
   93.54        3349.50           6893         282.00      1224.55
   93.57        3349.75           6897         281.00      1220.19
   93.60        3350.00           6901         281.00      1220.19
   93.62        3350.25           6904         287.00      1246.34
   93.66        3350.50           6908         265.00      1150.43
   93.68        3350.75           6912         300.00      1303.02
   93.71        3351.00           6916         292.00      1268.14
HL scan finished at 01:35:39
end
