************************************************************
  HL Scan of (1) Internal mercury lamp
************************************************************
Integration time is 0.2294 seconds per sample
dh230619El Arenosillo 37.1 6.73 2.96pr1000
************************************************************
Dead Time -------------------------  3.2E-08 
Number of Cycles Used -------------  4 
Starting Wavelength (Angstroms) ---  3331 
Final Wavelength (Angstoms) -------  3351 
Wavelength Increment (Angstroms) --  .25 
Filter Wheel #1 Position ---------- (1) Ground quartz diffuser (ND=2.32)
Filter Wheel #2 Position ---------- 



************************************************************
HL scan start time = 02:31:44
Dark Count =  .9 


Time (GMT)  Wavelength (Ang)  Step Number  Raw Counts  Counts/Second

  153.18        3331.00           6616          98.00       423.28
  154.22        3331.25           6620         115.00       497.39
  154.25        3331.50           6623          92.00       397.13
  154.27        3331.75           6627          95.00       410.21
  154.31        3332.00           6631          99.00       427.64
  154.34        3332.25           6635          98.00       423.28
  154.36        3332.50           6638          97.00       418.92
  154.39        3332.75           6642          94.00       405.85
  154.42        3333.00           6646          97.00       418.92
  154.45        3333.25           6649          93.00       401.49
  154.48        3333.50           6653          98.00       423.28
  154.51        3333.75           6657          97.00       418.92
  154.54        3334.00           6661         100.00       432.00
  154.57        3334.25           6664          98.00       423.28
  154.60        3334.50           6668         126.00       545.35
  154.63        3334.75           6672         137.00       593.30
  154.66        3335.00           6676         127.00       549.70
  154.69        3335.25           6679         144.00       623.81
  154.72        3335.50           6683         174.00       754.60
  154.75        3335.75           6687         317.00      1378.00
  154.78        3336.00           6691        1255.00      5467.83
  154.81        3336.25           6694        3159.00     13772.85
  154.84        3336.50           6698        7610.00     33204.84
  154.87        3336.75           6702       12912.00     56383.68
  154.90        3337.00           6706       18410.00     80455.79
  154.93        3337.25           6709       22508.00     98422.41
  154.95        3337.50           6713       27792.00    121619.30
  154.98        3337.75           6717       33186.00    145334.80
  155.02        3338.00           6721       38693.00    169584.30
  155.05        3338.25           6724       42757.00    187504.00
  155.08        3338.50           6728       47951.00    210436.30
  155.11        3338.75           6732       53301.00    234092.70
  155.14        3339.00           6736       59045.00    259531.50
  155.17        3339.25           6739       62939.00    276800.60
  155.20        3339.50           6743       68526.00    301611.50
  155.23        3339.75           6747       73069.00    321815.40
  155.26        3340.00           6751       78835.00    347496.20
  155.28        3340.25           6754       83183.00    366889.50
  155.32        3340.50           6758       88433.00    390338.40
  155.34        3340.75           6762       93742.00    414086.80
  155.37        3341.00           6766       97186.00    429512.10
  155.40        3341.25           6769       98894.00    437167.80
  155.43        3341.50           6773       99154.00    438333.50
  155.46        3341.75           6777       97462.00    430749.00
  155.49        3342.00           6781       94226.00    416253.70
  155.52        3342.25           6784       90058.00    397603.60
  155.55        3342.50           6788       85166.00    375742.30
  155.58        3342.75           6792       80038.00    352859.50
  155.61        3343.00           6795       76057.00    335118.10
  155.64        3343.25           6799       70326.00    309613.40
  155.66        3343.50           6803       64754.00    284856.40
  155.69        3343.75           6807       59344.00    260856.70
  155.73        3344.00           6811       53835.00    236456.00
  155.76        3344.25           6814       49793.00    218577.10
  155.78        3344.50           6818       44263.00    194149.70
  155.82        3344.75           6822       38820.00    170144.00
  155.85        3345.00           6826       33117.00    145031.20
  155.87        3345.25           6829       29263.00    128083.20
  155.90        3345.50           6833       23871.00    104402.70
  155.94        3345.75           6837       18171.00     79408.59
  155.96        3346.00           6841       12633.00     55163.12
  155.99        3346.25           6844        8573.00     37412.24
  156.03        3346.50           6848        4067.00     17735.00
  156.05        3346.75           6852        1440.00      6274.58
  156.08        3347.00           6856         435.00      1892.44
  156.11        3347.25           6859         290.00      1260.29
  156.14        3347.50           6863         192.00       833.07
  156.17        3347.75           6867         164.00       711.00
  156.20        3348.00           6871         155.00       671.77
  156.24        3348.25           6874         129.00       558.42
  156.26        3348.50           6878         140.00       606.38
  156.29        3348.75           6882         147.00       636.89
  156.33        3349.00           6886         129.00       558.42
  156.35        3349.25           6889          95.00       410.21
  156.38        3349.50           6893         108.00       466.88
  156.41        3349.75           6897         138.00       597.66
  156.44        3350.00           6901         132.00       571.50
  156.47        3350.25           6904         104.00       449.44
  156.50        3350.50           6908         117.00       506.11
  156.53        3350.75           6912         140.00       606.38
  156.56        3351.00           6916         123.00       532.27
HL scan finished at 02:38:30
end
