************************************************************
  HL Scan of (1) Internal mercury lamp
************************************************************
Integration time is 0.2294 seconds per sample
dh220619El Arenosillo 37.1 6.73 3.07pr1000
************************************************************
Dead Time -------------------------  3.2E-08 
Number of Cycles Used -------------  4 
Starting Wavelength (Angstroms) ---  3331 
Final Wavelength (Angstoms) -------  3351 
Wavelength Increment (Angstroms) --  .25 
Filter Wheel #1 Position ---------- (1) Ground quartz diffuser (ND=2.32)
Filter Wheel #2 Position ---------- 



************************************************************
HL scan start time = 01:24:13
Dark Count =  1.6 


Time (GMT)  Wavelength (Ang)  Step Number  Raw Counts  Counts/Second

   85.66        3331.00           6616         106.00       455.11
   86.70        3331.25           6620          93.00       398.44
   86.72        3331.50           6623         131.00       564.09
   86.75        3331.75           6627         121.00       520.50
   86.78        3332.00           6631         101.00       433.31
   86.81        3332.25           6635          96.00       411.51
   86.84        3332.50           6638         115.00       494.34
   86.87        3332.75           6642         101.00       433.31
   86.90        3333.00           6646         103.00       442.03
   86.93        3333.25           6649          93.00       398.44
   86.96        3333.50           6653          97.00       415.87
   86.99        3333.75           6657         109.00       468.18
   87.02        3334.00           6661         140.00       603.32
   87.05        3334.25           6664         129.00       555.37
   87.08        3334.50           6668         126.00       542.29
   87.11        3334.75           6672         158.00       681.79
   87.14        3335.00           6676         148.00       638.20
   87.17        3335.25           6679         157.00       677.43
   87.20        3335.50           6683         185.00       799.50
   87.23        3335.75           6687         252.00      1091.58
   87.26        3336.00           6691         865.00      3764.19
   87.29        3336.25           6694        2259.00      9843.55
   87.31        3336.50           6698        5957.00     25982.36
   87.35        3336.75           6702       11066.00     48306.53
   87.37        3337.00           6706       16459.00     71906.34
   87.40        3337.25           6709       20920.00     91454.71
   87.43        3337.50           6713       26585.00    116314.40
   87.46        3337.75           6717       32327.00    141552.60
   87.49        3338.00           6721       37919.00    166170.70
   87.53        3338.25           6724       41914.00    183782.10
   87.55        3338.50           6728       47418.00    208078.40
   87.58        3338.75           6732       52498.00    230536.70
   87.62        3339.00           6736       58346.00    256430.40
   87.65        3339.25           6739       62864.00    276464.70
   87.67        3339.50           6743       68604.00    301955.00
   87.70        3339.75           6747       74848.00    329731.10
   87.73        3340.00           6751       80597.00    355349.20
   87.76        3340.25           6754       84884.00    374479.90
   87.78        3340.50           6758       90647.00    400234.60
   87.82        3340.75           6762       96441.00    426170.90
   87.85        3341.00           6766       99915.00    441742.70
   87.87        3341.25           6769      102255.00    452240.40
   87.91        3341.50           6773      103180.00    456392.10
   87.94        3341.75           6777      101735.00    449907.00
   87.96        3342.00           6781       98390.00    434905.20
   88.00        3342.25           6784       95015.00    419783.50
   88.02        3342.50           6788       89879.00    396799.90
   88.05        3342.75           6792       84424.00    372426.00
   88.08        3343.00           6795       79979.00    352593.30
   88.11        3343.25           6799       74770.00    329383.80
   88.14        3343.50           6803       68917.00    303346.20
   88.18        3343.75           6807       63099.00    277507.50
   88.20        3344.00           6811       57457.00    252491.30
   88.23        3344.25           6814       52778.00    231775.50
   88.26        3344.50           6818       46532.00    204164.70
   88.30        3344.75           6822       40607.00    178018.20
   88.32        3345.00           6826       34852.00    152663.80
   88.36        3345.25           6829       30766.00    134687.40
   88.39        3345.50           6833       24977.00    109254.00
   88.42        3345.75           6837       19438.00     84957.78
   88.44        3346.00           6841       14111.00     61627.08
   88.48        3346.25           6844       10048.00     43855.76
   88.51        3346.50           6848        5101.00     22245.13
   88.54        3346.75           6852        1950.00      8495.77
   88.57        3347.00           6856         605.00      2630.56
   88.60        3347.25           6859         293.00      1270.32
   88.62        3347.50           6863         199.00       860.53
   88.66        3347.75           6867         176.00       760.26
   88.69        3348.00           6871         160.00       690.51
   88.71        3348.25           6874         149.00       642.56
   88.75        3348.50           6878         123.00       529.22
   88.78        3348.75           6882         154.00       664.36
   88.80        3349.00           6886         128.00       551.01
   88.84        3349.25           6889         107.00       459.47
   88.87        3349.50           6893         112.00       481.26
   88.89        3349.75           6897         134.00       577.17
   88.92        3350.00           6901         113.00       485.62
   88.95        3350.25           6904         104.00       446.39
   88.98        3350.50           6908         130.00       559.73
   89.01        3350.75           6912         121.00       520.50
   89.04        3351.00           6916         124.00       533.57
HL scan finished at 01:30:59
end
