************************************************************
  HL Scan of (1) Internal mercury lamp
************************************************************
Integration time is 0.2294 seconds per sample
dh060717El Arenosillo 37.1 6.73 3.01pr1000
************************************************************
Dead Time -------------------------  3.2E-08 
Number of Cycles Used -------------  4 
Starting Wavelength (Angstroms) ---  3331 
Final Wavelength (Angstoms) -------  3351 
Wavelength Increment (Angstroms) --  .25 
Filter Wheel #1 Position ---------- (1) Ground quartz diffuser (ND=2.32)
Filter Wheel #2 Position ---------- 



************************************************************
HL scan start time = 01:30:14
Dark Count =  .9 


Time (GMT)  Wavelength (Ang)  Step Number  Raw Counts  Counts/Second

   91.67        3331.00           6616         242.00      1051.04
   92.71        3331.25           6620         216.00       937.69
   92.74        3331.50           6623         245.00      1064.12
   92.77        3331.75           6627         225.00       976.93
   92.79        3332.00           6631         228.00       990.01
   92.82        3332.25           6635         256.00      1112.07
   92.84        3332.50           6638         240.00      1042.32
   92.86        3332.75           6642         186.00       806.91
   92.89        3333.00           6646         231.00      1003.08
   92.92        3333.25           6649         230.00       998.72
   92.95        3333.50           6653         231.00      1003.08
   92.97        3333.75           6657         252.00      1094.63
   93.01        3334.00           6661         276.00      1199.26
   93.04        3334.25           6664         243.00      1055.40
   93.06        3334.50           6668         269.00      1168.74
   93.10        3334.75           6672         305.00      1325.69
   93.13        3335.00           6676         359.00      1561.11
   93.15        3335.25           6679         408.00      1774.73
   93.18        3335.50           6683         499.00      2171.47
   93.22        3335.75           6687         928.00      4041.94
   93.24        3336.00           6691        3310.00     14431.69
   93.27        3336.25           6694        7538.00     32890.31
   93.30        3336.50           6698       17842.00     77967.16
   93.33        3336.75           6702       31299.00    137034.20
   93.36        3337.00           6706       45534.00    199760.70
   93.39        3337.25           6709       55943.00    245788.30
   93.42        3337.50           6713       69327.00    305171.90
   93.45        3337.75           6717       82629.00    364417.20
   93.48        3338.00           6721       96568.00    426743.10
   93.51        3338.25           6724      106361.00    470681.00
   93.54        3338.50           6728      119197.00    528461.00
   93.57        3338.75           6732      132978.00    590735.60
   93.60        3339.00           6736      147519.00    656717.50
   93.63        3339.25           6739      157621.00    702723.10
   93.66        3339.50           6743      171769.00    767385.90
   93.69        3339.75           6747      186043.00    832900.20
   93.72        3340.00           6751      199300.00    893997.20
   93.75        3340.25           6754      209662.00    941921.50
   93.78        3340.50           6758      222723.00   1002542.00
   93.81        3340.75           6762      234307.00   1056508.00
   93.84        3341.00           6766      242918.00   1096748.00
   93.87        3341.25           6769      247758.00   1119411.00
   93.90        3341.50           6773      248987.00   1125171.00
   93.93        3341.75           6777      246124.00   1111756.00
   93.96        3342.00           6781      238348.00   1075379.00
   93.99        3342.25           6784      229477.00   1033984.00
   94.02        3342.50           6788      216925.00    975602.10
   94.04        3342.75           6792      204027.00    915841.10
   94.08        3343.00           6795      194025.00    869657.60
   94.11        3343.25           6799      181053.00    809965.60
   94.13        3343.50           6803      167556.00    748102.10
   94.17        3343.75           6807      152480.00    679293.30
   94.20        3344.00           6811      138993.00    617995.40
   94.22        3344.25           6814      128589.00    570875.10
   94.25        3344.50           6818      114177.00    505838.30
   94.29        3344.75           6822       99511.00    439934.20
   94.32        3345.00           6826       85485.00    377166.90
   94.34        3345.25           6829       74759.00    329338.00
   94.37        3345.50           6833       61109.00    268682.50
   94.40        3345.75           6837       46784.00    205280.90
   94.43        3346.00           6841       32497.00    142303.50
   94.46        3346.25           6844       22640.00     99001.47
   94.50        3346.50           6848       11454.00     50006.28
   94.52        3346.75           6852        4354.00     18987.56
   94.55        3347.00           6856        1358.00      5916.99
   94.58        3347.25           6859         660.00      2873.41
   94.61        3347.50           6863         447.00      1944.76
   94.64        3347.75           6867         372.00      1617.78
   94.67        3348.00           6871         334.00      1452.12
   94.70        3348.25           6874         310.00      1347.49
   94.73        3348.50           6878         292.00      1269.01
   94.76        3348.75           6882         274.00      1190.54
   94.79        3349.00           6886         263.00      1142.59
   94.82        3349.25           6889         273.00      1186.18
   94.85        3349.50           6893         276.00      1199.26
   94.88        3349.75           6897         272.00      1181.82
   94.91        3350.00           6901         267.00      1160.03
   94.94        3350.25           6904         297.00      1290.81
   94.97        3350.50           6908         295.00      1282.09
   94.99        3350.75           6912         307.00      1334.41
   95.03        3351.00           6916         268.00      1164.39
HL scan finished at 01:36:58
end
