************************************************************
  HL Scan of (1) Internal mercury lamp
************************************************************
Integration time is 0.2294 seconds per sample
dh290618El Arenosillo 37.1 6.73 2.96pr1000
************************************************************
Dead Time -------------------------  3.2E-08 
Number of Cycles Used -------------  4 
Starting Wavelength (Angstroms) ---  3331 
Final Wavelength (Angstoms) -------  3351 
Wavelength Increment (Angstroms) --  .25 
Filter Wheel #1 Position ---------- (1) Ground quartz diffuser (ND=2.32)
Filter Wheel #2 Position ---------- 



************************************************************
HL scan start time = 01:28:50
Dark Count =  .6 


Time (GMT)  Wavelength (Ang)  Step Number  Raw Counts  Counts/Second

   90.27        3331.00           6616         158.00       686.15
   91.31        3331.25           6620         169.00       734.11
   91.34        3331.50           6623         149.00       646.92
   91.36        3331.75           6627         154.00       668.72
   91.40        3332.00           6631         136.00       590.25
   91.43        3332.25           6635         151.00       655.64
   91.45        3332.50           6638         157.00       681.79
   91.48        3332.75           6642         153.00       664.36
   91.51        3333.00           6646         144.00       625.12
   91.54        3333.25           6649         141.00       612.04
   91.57        3333.50           6653         146.00       633.84
   91.60        3333.75           6657         150.00       651.28
   91.63        3334.00           6661         145.00       629.48
   91.66        3334.25           6664         158.00       686.15
   91.69        3334.50           6668         169.00       734.11
   91.72        3334.75           6672         204.00       886.69
   91.75        3335.00           6676         260.00      1130.82
   91.78        3335.25           6679         273.00      1187.49
   91.81        3335.50           6683         303.00      1318.28
   91.84        3335.75           6687         687.00      2992.44
   91.86        3336.00           6691        2974.00     12967.02
   91.90        3336.25           6694        6805.00     29689.92
   91.93        3336.50           6698       15580.00     68061.77
   91.96        3336.75           6702       25989.00    113701.50
   91.99        3337.00           6706       36454.00    159721.90
   92.02        3337.25           6709       43706.00    191692.80
   92.04        3337.50           6713       53533.00    235120.70
   92.08        3337.75           6717       63102.00    277525.20
   92.11        3338.00           6721       72931.00    321202.60
   92.14        3338.25           6724       79384.00    349944.90
   92.16        3338.50           6728       89050.00    393097.90
   92.20        3338.75           6732       98933.00    437343.90
   92.23        3339.00           6736      108326.00    479513.60
   92.25        3339.25           6739      115611.00    512298.60
   92.29        3339.50           6743      125929.00    558852.10
   92.32        3339.75           6747      135610.00    602659.30
   92.34        3340.00           6751      144663.00    643737.10
   92.37        3340.25           6754      151616.00    675360.60
   92.40        3340.50           6758      160592.00    716281.00
   92.43        3340.75           6762      168025.00    750249.10
   92.46        3341.00           6766      174245.00    778731.60
   92.49        3341.25           6769      176734.00    790144.00
   92.52        3341.50           6773      177293.00    792708.10
   92.55        3341.75           6777      174303.00    778997.50
   92.58        3342.00           6781      167413.00    747449.50
   92.61        3342.25           6784      160584.00    716244.40
   92.64        3342.50           6788      150986.00    672492.60
   92.67        3342.75           6792      141006.00    627130.50
   92.70        3343.00           6795      133062.00    591117.30
   92.73        3343.25           6799      123316.00    547049.30
   92.75        3343.50           6803      113480.00    502701.20
   92.79        3343.75           6807      103746.00    458937.50
   92.82        3344.00           6811       94419.00    417119.10
   92.84        3344.25           6814       87869.00    387818.90
   92.87        3344.50           6818       78672.00    346771.00
   92.91        3344.75           6822       68495.00    301475.10
   92.94        3345.00           6826       58863.00    258726.10
   92.96        3345.25           6829       51374.00    225569.20
   93.00        3345.50           6833       41226.00    180752.10
   93.02        3345.75           6837       31703.00    138812.30
   93.05        3346.00           6841       21653.00     94673.49
   93.09        3346.25           6844       14806.00     64673.39
   93.11        3346.50           6848        7481.00     32642.63
   93.14        3346.75           6852        2767.00     12063.94
   93.17        3347.00           6856         853.00      3716.22
   93.21        3347.25           6859         394.00      1715.00
   93.23        3347.50           6863         289.00      1257.24
   93.26        3347.75           6867         229.00       995.67
   93.29        3348.00           6871         189.00       821.29
   93.32        3348.25           6874         181.00       786.42
   93.35        3348.50           6878         180.00       782.06
   93.38        3348.75           6882         174.00       755.90
   93.41        3349.00           6886         160.00       694.87
   93.44        3349.25           6889         158.00       686.15
   93.47        3349.50           6893         158.00       686.15
   93.50        3349.75           6897         154.00       668.72
   93.53        3350.00           6901         171.00       742.82
   93.56        3350.25           6904         152.00       660.00
   93.59        3350.50           6908         159.00       690.51
   93.62        3350.75           6912         157.00       681.79
   93.64        3351.00           6916         158.00       686.15
HL scan finished at 01:35:35
end
