************************************************************
  HL Scan of (1) Internal mercury lamp
************************************************************
Integration time is 0.2294 seconds per sample
dh290617El Arenosillo 37.1 6.73 2.96pr1000
************************************************************
Dead Time -------------------------  3.2E-08 
Number of Cycles Used -------------  4 
Starting Wavelength (Angstroms) ---  3331 
Final Wavelength (Angstoms) -------  3351 
Wavelength Increment (Angstroms) --  .25 
Filter Wheel #1 Position ---------- (1) Ground quartz diffuser (ND=2.32)
Filter Wheel #2 Position ---------- 



************************************************************
HL scan start time = 01:30:07
Dark Count =  .5 


Time (GMT)  Wavelength (Ang)  Step Number  Raw Counts  Counts/Second

   91.55        3331.00           6616         245.00      1065.86
   92.59        3331.25           6620         251.00      1092.02
   92.62        3331.50           6623         246.00      1070.22
   92.64        3331.75           6627         221.00       961.23
   92.67        3332.00           6631         255.00      1109.46
   92.71        3332.25           6635         246.00      1070.22
   92.73        3332.50           6638         245.00      1065.86
   92.76        3332.75           6642         224.00       974.31
   92.79        3333.00           6646         243.00      1057.14
   92.82        3333.25           6649         229.00       996.11
   92.85        3333.50           6653         227.00       987.39
   92.88        3333.75           6657         254.00      1105.10
   92.91        3334.00           6661         267.00      1161.77
   92.94        3334.25           6664         273.00      1187.93
   92.97        3334.50           6668         285.00      1240.24
   93.00        3334.75           6672         310.00      1349.23
   93.03        3335.00           6676         375.00      1632.60
   93.06        3335.25           6679         405.00      1763.40
   93.09        3335.50           6683         481.00      2094.74
   93.12        3335.75           6687         905.00      3943.39
   93.14        3336.00           6691        3091.00     13477.91
   93.18        3336.25           6694        7547.00     32931.38
   93.21        3336.50           6698       17972.00     78538.47
   93.23        3336.75           6702       30869.00    135145.10
   93.26        3337.00           6706       44274.00    194200.00
   93.30        3337.25           6709       54770.00    240596.40
   93.32        3337.50           6713       68491.00    301457.80
   93.35        3337.75           6717       82363.00    363232.00
   93.38        3338.00           6721       95856.00    423555.20
   93.42        3338.25           6724      106606.00    471783.60
   93.44        3338.50           6728      120433.00    534037.90
   93.47        3338.75           6732      135227.00    600924.10
   93.50        3339.00           6736      149908.00    667586.80
   93.54        3339.25           6739      160544.00    716062.30
   93.56        3339.50           6743      174010.00    777655.00
   93.59        3339.75           6747      187726.00    840645.10
   93.62        3340.00           6751      201163.00    902604.50
   93.65        3340.25           6754      210746.00    946945.50
   93.68        3340.50           6758      224310.00   1009926.00
   93.71        3340.75           6762      236402.00   1066290.00
   93.74        3341.00           6766      245125.00   1107080.00
   93.77        3341.25           6769      248319.00   1122042.00
   93.80        3341.50           6773      250259.00   1131137.00
   93.83        3341.75           6777      247564.00   1118504.00
   93.86        3342.00           6781      240097.00   1083555.00
   93.89        3342.25           6784      231323.00   1042591.00
   93.92        3342.50           6788      218038.00    980771.90
   93.95        3342.75           6792      204102.00    916189.90
   93.97        3343.00           6795      193548.00    867460.30
   94.01        3343.25           6799      178465.00    798086.20
   94.04        3343.50           6803      164612.00    734643.10
   94.06        3343.75           6807      150060.00    668278.40
   94.09        3344.00           6811      136057.00    604685.50
   94.13        3344.25           6814      125743.00    558012.10
   94.16        3344.50           6818      112905.00    500113.00
   94.18        3344.75           6822       99241.00    438725.30
   94.21        3345.00           6826       84807.00    374141.00
   94.25        3345.25           6829       75634.00    333236.00
   94.28        3345.50           6833       61341.00    269713.20
   94.31        3345.75           6837       46947.00    206002.60
   94.33        3346.00           6841       33097.00    144944.90
   94.37        3346.25           6844       23356.00    102144.60
   94.40        3346.50           6848       12190.00     53227.03
   94.42        3346.75           6852        4779.00     20844.33
   94.45        3347.00           6856        1633.00      7118.01
   94.48        3347.25           6859         807.00      3516.09
   94.51        3347.50           6863         478.00      2081.66
   94.54        3347.75           6867         392.00      1706.72
   94.57        3348.00           6871         340.00      1480.02
   94.60        3348.25           6874         320.00      1392.83
   94.63        3348.50           6878         299.00      1301.27
   94.66        3348.75           6882         287.00      1248.96
   94.69        3349.00           6886         275.00      1196.65
   94.72        3349.25           6889         283.00      1231.52
   94.75        3349.50           6893         274.00      1192.29
   94.77        3349.75           6897         269.00      1170.49
   94.80        3350.00           6901         307.00      1336.15
   94.84        3350.25           6904         283.00      1231.52
   94.86        3350.50           6908         304.00      1323.07
   94.89        3350.75           6912         292.00      1270.76
   94.92        3351.00           6916         277.00      1205.36
HL scan finished at 01:36:52
end
