************************************************************
  HL Scan of (1) Internal mercury lamp
************************************************************
Integration time is 0.2294 seconds per sample
dh060718El Arenosillo 37.1 6.73 3.05pr1000
************************************************************
Dead Time -------------------------  3.2E-08 
Number of Cycles Used -------------  4 
Starting Wavelength (Angstroms) ---  3331 
Final Wavelength (Angstoms) -------  3351 
Wavelength Increment (Angstroms) --  .25 
Filter Wheel #1 Position ---------- (1) Ground quartz diffuser (ND=2.32)
Filter Wheel #2 Position ---------- 



************************************************************
HL scan start time = 01:27:42
Dark Count =  .7 


Time (GMT)  Wavelength (Ang)  Step Number  Raw Counts  Counts/Second

   89.13        3331.00           6616         139.00       602.89
   90.17        3331.25           6620         137.00       594.17
   90.20        3331.50           6623         147.00       637.76
   90.22        3331.75           6627         151.00       655.20
   90.25        3332.00           6631         147.00       637.76
   90.29        3332.25           6635         146.00       633.40
   90.31        3332.50           6638         143.00       620.33
   90.34        3332.75           6642         151.00       655.20
   90.37        3333.00           6646         158.00       685.72
   90.40        3333.25           6649         172.00       746.75
   90.43        3333.50           6653         135.00       585.45
   90.46        3333.75           6657         169.00       733.67
   90.49        3334.00           6661         150.00       650.84
   90.52        3334.25           6664         168.00       729.31
   90.55        3334.50           6668         166.00       720.59
   90.58        3334.75           6672         195.00       847.02
   90.61        3335.00           6676         248.00      1078.07
   90.64        3335.25           6679         252.00      1095.50
   90.67        3335.50           6683         291.00      1265.53
   90.70        3335.75           6687         491.00      2137.46
   90.73        3336.00           6691        1921.00      8373.21
   90.76        3336.25           6694        4863.00     21210.12
   90.79        3336.50           6698       12153.00     53064.31
   90.82        3336.75           6702       21230.00     92818.01
   90.84        3337.00           6706       31275.00    136929.60
   90.88        3337.25           6709       39038.00    171105.60
   90.91        3337.50           6713       49257.00    216208.70
   90.94        3337.75           6717       59258.00    260476.40
   90.96        3338.00           6721       69156.00    304412.60
   91.00        3338.25           6724       76536.00    337252.60
   91.03        3338.50           6728       86494.00    381674.70
   91.06        3338.75           6732       96043.00    424391.90
   91.08        3339.00           6736      106150.00    469733.80
   91.12        3339.25           6739      113912.00    504645.90
   91.15        3339.50           6743      123960.00    549957.00
   91.18        3339.75           6747      134222.00    596370.30
   91.20        3340.00           6751      143762.00    639643.50
   91.24        3340.25           6754      150883.00    672023.20
   91.27        3340.50           6758      160998.00    718133.90
   91.29        3340.75           6762      169416.00    756613.70
   91.32        3341.00           6766      175477.00    784379.00
   91.36        3341.25           6769      178451.00    798021.00
   91.38        3341.50           6773      179973.00    805007.30
   91.41        3341.75           6777      177845.00    795240.20
   91.44        3342.00           6781      172604.00    771211.60
   91.47        3342.25           6784      166109.00    741485.50
   91.50        3342.50           6788      156784.00    698907.00
   91.53        3342.75           6792      146626.00    652658.10
   91.56        3343.00           6795      138185.00    614331.60
   91.59        3343.25           6799      127901.00    567765.00
   91.62        3343.50           6803      118306.00    524444.10
   91.64        3343.75           6807      108010.00    478092.60
   91.67        3344.00           6811       97976.00    433053.50
   91.71        3344.25           6814       90650.00    400252.00
   91.74        3344.50           6818       81368.00    358792.00
   91.76        3344.75           6822       71412.00    314444.10
   91.79        3345.00           6826       61747.00    271513.10
   91.83        3345.25           6829       54217.00    238147.50
   91.86        3345.50           6833       44206.00    193899.00
   91.88        3345.75           6837       34409.00    150717.80
   91.91        3346.00           6841       24083.00    105334.00
   91.94        3346.25           6844       16776.00     73298.59
   91.97        3346.50           6848        8811.00     38453.13
   92.00        3346.75           6852        3135.00     13669.01
   92.03        3347.00           6856         925.00      4029.73
   92.06        3347.25           6859         449.00      1954.35
   92.09        3347.50           6863         290.00      1261.17
   92.12        3347.75           6867         240.00      1043.19
   92.14        3348.00           6871         199.00       864.45
   92.18        3348.25           6874         194.00       842.66
   92.21        3348.50           6878         167.00       724.95
   92.23        3348.75           6882         163.00       707.51
   92.26        3349.00           6886         155.00       672.64
   92.30        3349.25           6889         162.00       703.15
   92.33        3349.50           6893         155.00       672.64
   92.35        3349.75           6897         162.00       703.15
   92.38        3350.00           6901         150.00       650.84
   92.41        3350.25           6904         165.00       716.23
   92.44        3350.50           6908         162.00       703.15
   92.47        3350.75           6912         151.00       655.20
   92.50        3351.00           6916         155.00       672.64
HL scan finished at 01:34:27
end
