************************************************************
  HL Scan of (1) Internal mercury lamp
************************************************************
Integration time is 0.2294 seconds per sample
dh130718El Arenosillo 37.1 6.73 3pr1000
************************************************************
Dead Time -------------------------  3.2E-08 
Number of Cycles Used -------------  4 
Starting Wavelength (Angstroms) ---  3331 
Final Wavelength (Angstoms) -------  3351 
Wavelength Increment (Angstroms) --  .25 
Filter Wheel #1 Position ---------- (1) Ground quartz diffuser (ND=2.32)
Filter Wheel #2 Position ---------- 



************************************************************
HL scan start time = 01:31:05
Dark Count =  .7 


Time (GMT)  Wavelength (Ang)  Step Number  Raw Counts  Counts/Second

   92.52        3331.00           6616         145.00       629.05
   93.57        3331.25           6620         159.00       690.08
   93.59        3331.50           6623         156.00       677.00
   93.62        3331.75           6627         150.00       650.84
   93.65        3332.00           6631         155.00       672.64
   93.68        3332.25           6635         169.00       733.67
   93.71        3332.50           6638         143.00       620.33
   93.74        3332.75           6642         149.00       646.48
   93.77        3333.00           6646         128.00       554.94
   93.80        3333.25           6649         160.00       694.44
   93.83        3333.50           6653         137.00       594.17
   93.86        3333.75           6657         165.00       716.23
   93.89        3334.00           6661         149.00       646.48
   93.91        3334.25           6664         149.00       646.48
   93.94        3334.50           6668         159.00       690.08
   93.98        3334.75           6672         181.00       785.98
   94.01        3335.00           6676         216.00       938.56
   94.03        3335.25           6679         248.00      1078.07
   94.06        3335.50           6683         290.00      1261.17
   94.10        3335.75           6687         525.00      2285.69
   94.12        3336.00           6691        2132.00      9293.52
   94.15        3336.25           6694        5415.00     23619.85
   94.18        3336.50           6698       12980.00     56682.06
   94.21        3336.75           6702       21886.00     95694.94
   94.24        3337.00           6706       31046.00    135922.50
   94.26        3337.25           6709       37645.00    164967.50
   94.30        3337.50           6713       47081.00    206593.70
   94.33        3337.75           6717       55794.00    245129.40
   94.36        3338.00           6721       64776.00    284955.00
   94.39        3338.25           6724       71672.00    315600.70
   94.42        3338.50           6728       81110.00    357641.20
   94.45        3338.75           6732       90878.00    401271.80
   94.48        3339.00           6736      100047.00    442338.80
   94.51        3339.25           6739      107094.00    473975.60
   94.54        3339.50           6743      117030.00    518692.20
   94.57        3339.75           6747      126786.00    562724.60
   94.60        3340.00           6751      135815.00    603587.80
   94.63        3340.25           6754      142936.00    635892.00
   94.66        3340.50           6758      151524.00    674941.30
   94.69        3340.75           6762      159193.00    709895.40
   94.72        3341.00           6766      165565.00    738998.40
   94.75        3341.25           6769      168668.00    753190.60
   94.77        3341.50           6773      168837.00    753964.00
   94.80        3341.75           6777      166572.00    743602.60
   94.84        3342.00           6781      160563.00    716148.00
   94.87        3342.25           6784      154540.00    688678.30
   94.89        3342.50           6788      145632.00    648140.00
   94.92        3342.75           6792      136829.00    608183.60
   94.95        3343.00           6795      130364.00    578904.90
   94.98        3343.25           6799      121737.00    539921.00
   95.01        3343.50           6803      112038.00    496209.70
   95.04        3343.75           6807      102716.00    454313.40
   95.07        3344.00           6811       92627.00    409097.00
   95.10        3344.25           6814       85384.00    376716.70
   95.13        3344.50           6818       75590.00    333039.20
   95.16        3344.75           6822       66510.00    292655.10
   95.19        3345.00           6826       57035.00    250625.80
   95.22        3345.25           6829       49833.00    218754.90
   95.25        3345.50           6833       39805.00    174486.40
   95.28        3345.75           6837       30086.00    131701.70
   95.31        3346.00           6841       20439.00     89349.71
   95.33        3346.25           6844       13493.00     58926.62
   95.37        3346.50           6848        6343.00     27671.83
   95.40        3346.75           6852        2057.00      8966.39
   95.42        3347.00           6856         620.00      2699.88
   95.45        3347.25           6859         350.00      1522.74
   95.49        3347.50           6863         256.00      1112.94
   95.51        3347.75           6867         210.00       912.41
   95.54        3348.00           6871         178.00       772.90
   95.58        3348.25           6874         165.00       716.23
   95.61        3348.50           6878         166.00       720.59
   95.63        3348.75           6882         158.00       685.72
   95.66        3349.00           6886         163.00       707.51
   95.69        3349.25           6889         146.00       633.40
   95.72        3349.50           6893         155.00       672.64
   95.75        3349.75           6897         156.00       677.00
   95.78        3350.00           6901         157.00       681.36
   95.81        3350.25           6904         156.00       677.00
   95.84        3350.50           6908         161.00       698.80
   95.87        3350.75           6912         144.00       624.69
   95.90        3351.00           6916         148.00       642.12
HL scan finished at 01:37:50
end
