************************************************************
  HL Scan of (1) Internal mercury lamp
************************************************************
Integration time is 0.2294 seconds per sample
dh130717El Arenosillo 37.1 6.73 3.31pr1000
************************************************************
Dead Time -------------------------  3.2E-08 
Number of Cycles Used -------------  4 
Starting Wavelength (Angstroms) ---  3331 
Final Wavelength (Angstoms) -------  3351 
Wavelength Increment (Angstroms) --  .25 
Filter Wheel #1 Position ---------- (1) Ground quartz diffuser (ND=2.32)
Filter Wheel #2 Position ---------- 



************************************************************
HL scan start time = 01:31:07
Dark Count =  1.6 


Time (GMT)  Wavelength (Ang)  Step Number  Raw Counts  Counts/Second

   92.56        3331.00           6616         249.00      1078.50
   93.60        3331.25           6620         225.00       973.88
   93.63        3331.50           6623         223.00       965.16
   93.66        3331.75           6627         247.00      1069.78
   93.69        3332.00           6631         232.00      1004.39
   93.71        3332.25           6635         229.00       991.31
   93.74        3332.50           6638         224.00       969.52
   93.77        3332.75           6642         228.00       986.95
   93.80        3333.00           6646         253.00      1095.94
   93.83        3333.25           6649         228.00       986.95
   93.86        3333.50           6653         290.00      1257.24
   93.89        3333.75           6657         223.00       965.16
   93.92        3334.00           6661         253.00      1095.94
   93.95        3334.25           6664         246.00      1065.42
   93.98        3334.50           6668         277.00      1200.57
   94.01        3334.75           6672         309.00      1340.08
   94.04        3335.00           6676         370.00      1606.01
   94.07        3335.25           6679         442.00      1919.91
   94.09        3335.50           6683         521.00      2264.33
   94.13        3335.75           6687         978.00      4256.90
   94.16        3336.00           6691        3621.00     15785.65
   94.18        3336.25           6694        8712.00     38016.58
   94.22        3336.50           6698       21043.00     91994.05
   94.24        3336.75           6702       36399.00    159475.20
   94.27        3337.00           6706       53163.00    233479.00
   94.30        3337.25           6709       65122.00    286487.10
   94.33        3337.50           6713       80552.00    355148.50
   94.36        3337.75           6717       95514.00    422018.40
   94.39        3338.00           6721      110810.00    490680.10
   94.42        3338.25           6724      121898.00    540643.60
   94.45        3338.50           6728      137469.00    611081.00
   94.48        3338.75           6732      152850.00    680975.30
   94.51        3339.00           6736      169473.00    756870.50
   94.54        3339.25           6739      181118.00    810261.00
   94.57        3339.50           6743      196704.00    882010.90
   94.60        3339.75           6747      211660.00    951176.20
   94.63        3340.00           6751      226412.00   1019704.00
   94.65        3340.25           6754      237785.00   1072745.00
   94.68        3340.50           6758      252409.00   1141218.00
   94.71        3340.75           6762      265309.00   1201874.00
   94.74        3341.00           6766      275356.00   1249282.00
   94.77        3341.25           6769      281094.00   1276423.00
   94.80        3341.50           6773      282400.00   1282608.00
   94.82        3341.75           6777      278965.00   1266347.00
   94.86        3342.00           6781      269202.00   1220226.00
   94.89        3342.25           6784      258456.00   1169621.00
   94.91        3342.50           6788      243371.00   1098864.00
   94.95        3342.75           6792      228567.00   1029741.00
   94.97        3343.00           6795      216911.00    975533.90
   95.00        3343.25           6799      201824.00    905653.90
   95.03        3343.50           6803      186676.00    835808.80
   95.06        3343.75           6807      170606.00    762057.00
   95.09        3344.00           6811      154663.00    689234.70
   95.12        3344.25           6814      143489.00    638399.40
   95.16        3344.50           6818      127113.00    564198.60
   95.18        3344.75           6822      111394.00    493307.70
   95.21        3345.00           6826       96347.00    425749.70
   95.24        3345.25           6829       84385.00    372251.90
   95.27        3345.50           6833       70174.00    308934.40
   95.30        3345.75           6837       53458.00    234784.40
   95.33        3346.00           6841       36886.00    161620.10
   95.36        3346.25           6844       25572.00    111866.20
   95.39        3346.50           6848       12901.00     56332.49
   95.42        3346.75           6852        4588.00     20005.83
   95.45        3347.00           6856        1419.00      6179.95
   95.49        3347.25           6859         728.00      3166.84
   95.51        3347.50           6863         485.00      2107.38
   95.54        3347.75           6867         416.00      1806.56
   95.57        3348.00           6871         363.00      1575.49
   95.60        3348.25           6874         349.00      1514.46
   95.63        3348.50           6878         293.00      1270.32
   95.66        3348.75           6882         298.00      1292.12
   95.69        3349.00           6886         276.00      1196.21
   95.72        3349.25           6889         266.00      1152.61
   95.75        3349.50           6893         284.00      1231.09
   95.78        3349.75           6897         269.00      1165.69
   95.81        3350.00           6901         269.00      1165.69
   95.83        3350.25           6904         278.00      1204.93
   95.86        3350.50           6908         280.00      1213.65
   95.90        3350.75           6912         304.00      1318.28
   95.93        3351.00           6916         283.00      1226.73
HL scan finished at 01:37:52
end
