************************************************************
  HL Scan of (1) Internal mercury lamp
************************************************************
Integration time is 0.2294 seconds per sample
dh270718El Arenosillo 37.1 6.73 2.98pr1000
************************************************************
Dead Time -------------------------  3.2E-08 
Number of Cycles Used -------------  4 
Starting Wavelength (Angstroms) ---  3331 
Final Wavelength (Angstoms) -------  3351 
Wavelength Increment (Angstroms) --  .25 
Filter Wheel #1 Position ---------- (1) Ground quartz diffuser (ND=2.32)
Filter Wheel #2 Position ---------- 



************************************************************
HL scan start time = 01:31:39
Dark Count =  .9 


Time (GMT)  Wavelength (Ang)  Step Number  Raw Counts  Counts/Second

   93.09        3331.00           6616         142.00       615.10
   94.13        3331.25           6620         129.00       558.42
   94.16        3331.50           6623         117.00       506.11
   94.19        3331.75           6627         150.00       649.97
   94.22        3332.00           6631         123.00       532.27
   94.25        3332.25           6635         140.00       606.38
   94.28        3332.50           6638         121.00       523.55
   94.31        3332.75           6642         127.00       549.70
   94.34        3333.00           6646         151.00       654.33
   94.37        3333.25           6649         148.00       641.25
   94.40        3333.50           6653         159.00       689.20
   94.42        3333.75           6657         141.00       610.74
   94.45        3334.00           6661         134.00       580.22
   94.49        3334.25           6664         139.00       602.02
   94.51        3334.50           6668         158.00       684.85
   94.54        3334.75           6672         179.00       776.39
   94.57        3335.00           6676         205.00       889.74
   94.60        3335.25           6679         226.00       981.29
   94.63        3335.50           6683         267.00      1160.03
   94.66        3335.75           6687         414.00      1800.89
   94.69        3336.00           6691        1484.00      6466.46
   94.72        3336.25           6694        4146.00     18079.77
   94.74        3336.50           6698       11102.00     48467.00
   94.77        3336.75           6702       19435.00     84947.69
   94.81        3337.00           6706       28730.00    125740.80
   94.83        3337.25           6709       35475.00    155409.60
   94.86        3337.50           6713       44105.00    193452.40
   94.89        3337.75           6717       53222.00    233743.20
   94.92        3338.00           6721       61883.00    272115.50
   94.95        3338.25           6724       68425.00    301162.70
   94.98        3338.50           6728       78106.00    344247.00
   95.01        3338.75           6732       87175.00    384716.40
   95.04        3339.00           6736       96423.00    426093.40
   95.07        3339.25           6739      103386.00    457320.00
   95.10        3339.50           6743      112672.00    499062.40
   95.13        3339.75           6747      122378.00    542813.30
   95.16        3340.00           6751      130896.00    581311.30
   95.19        3340.25           6754      137642.00    611868.60
   95.21        3340.50           6758      146727.00    653116.40
   95.25        3340.75           6762      154906.00    690345.30
   95.28        3341.00           6766      160916.00    717758.60
   95.30        3341.25           6769      164213.00    732817.90
   95.33        3341.50           6773      164866.00    735802.10
   95.37        3341.75           6777      163210.00    728235.00
   95.39        3342.00           6781      158233.00    705514.60
   95.42        3342.25           6784      153043.00    681857.40
   95.45        3342.50           6788      144506.00    643022.40
   95.48        3342.75           6792      135353.00    601493.30
   95.51        3343.00           6795      128341.00    569753.60
   95.53        3343.25           6799      118919.00    527207.30
   95.57        3343.50           6803      109102.00    483001.20
   95.60        3343.75           6807       99537.00    440050.80
   95.62        3344.00           6811       90059.00    397608.00
   95.65        3344.25           6814       83037.00    366238.00
   95.69        3344.50           6818       73933.00    325660.80
   95.72        3344.75           6822       64767.00    284914.10
   95.75        3345.00           6826       55702.00    244721.10
   95.77        3345.25           6829       48583.00    213229.00
   95.81        3345.50           6833       39735.00    174176.90
   95.83        3345.75           6837       30035.00    131476.60
   95.86        3346.00           6841       20350.00     88958.64
   95.89        3346.25           6844       13683.00     59757.14
   95.92        3346.50           6848        6056.00     26417.70
   95.95        3346.75           6852        1983.00      8642.76
   95.98        3347.00           6856         631.00      2746.97
   96.01        3347.25           6859         366.00      1591.62
   96.04        3347.50           6863         288.00      1251.58
   96.06        3347.75           6867         214.00       928.97
   96.09        3348.00           6871         190.00       824.35
   96.13        3348.25           6874         172.00       745.88
   96.15        3348.50           6878         166.00       719.72
   96.18        3348.75           6882         163.00       706.64
   96.21        3349.00           6886         145.00       628.17
   96.24        3349.25           6889         145.00       628.17
   96.27        3349.50           6893         149.00       645.61
   96.30        3349.75           6897         148.00       641.25
   96.33        3350.00           6901         156.00       676.13
   96.36        3350.25           6904         147.00       636.89
   96.39        3350.50           6908         160.00       693.56
   96.42        3350.75           6912         157.00       680.49
   96.44        3351.00           6916         157.00       680.49
HL scan finished at 01:38:23
end
