************************************************************
  HL Scan of (1) Internal mercury lamp
************************************************************
Integration time is 0.2294 seconds per sample
dh200717El Arenosillo 37.1 6.73 3.11pr1000
************************************************************
Dead Time -------------------------  3.2E-08 
Number of Cycles Used -------------  4 
Starting Wavelength (Angstroms) ---  3331 
Final Wavelength (Angstoms) -------  3351 
Wavelength Increment (Angstroms) --  .25 
Filter Wheel #1 Position ---------- (1) Ground quartz diffuser (ND=2.32)
Filter Wheel #2 Position ---------- 



************************************************************
HL scan start time = 01:31:34
Dark Count =  .6 


Time (GMT)  Wavelength (Ang)  Step Number  Raw Counts  Counts/Second

   93.01        3331.00           6616         214.00       930.28
   94.05        3331.25           6620         225.00       978.23
   94.07        3331.50           6623         220.00       956.44
   94.10        3331.75           6627         212.00       921.56
   94.13        3332.00           6631         232.00      1008.75
   94.16        3332.25           6635         217.00       943.36
   94.19        3332.50           6638         221.00       960.80
   94.22        3332.75           6642         224.00       973.88
   94.25        3333.00           6646         210.00       912.84
   94.28        3333.25           6649         230.00      1000.03
   94.31        3333.50           6653         241.00      1047.99
   94.33        3333.75           6657         224.00       973.88
   94.37        3334.00           6661         241.00      1047.99
   94.40        3334.25           6664         245.00      1065.42
   94.42        3334.50           6668         254.00      1104.66
   94.46        3334.75           6672         279.00      1213.65
   94.49        3335.00           6676         335.00      1457.78
   94.51        3335.25           6679         381.00      1658.33
   94.54        3335.50           6683         503.00      2190.21
   94.57        3335.75           6687        1194.00      5203.13
   94.60        3336.00           6691        4346.00     18953.95
   94.63        3336.25           6694        9978.00     43554.13
   94.66        3336.50           6698       20929.00     91498.55
   94.68        3336.75           6702       34706.00    152025.50
   94.71        3337.00           6706       48619.00    213389.40
   94.74        3337.25           6709       59183.00    260144.40
   94.77        3337.50           6713       72918.00    321144.80
   94.80        3337.75           6717       85653.00    377918.60
   94.83        3338.00           6721       99022.00    437743.00
   94.86        3338.25           6724      108827.00    481766.00
   94.89        3338.50           6728      123222.00    546624.90
   94.92        3338.75           6732      136746.00    607807.90
   94.95        3339.00           6736      151115.00    673079.80
   94.98        3339.25           6739      161302.00    719522.30
   95.01        3339.50           6743      174884.00    781660.70
   95.04        3339.75           6747      189129.00    847102.40
   95.06        3340.00           6751      202583.00    909166.40
   95.10        3340.25           6754      213109.00    957898.50
   95.13        3340.50           6758      226741.00   1021241.00
   95.16        3340.75           6762      237976.00   1073642.00
   95.19        3341.00           6766      246216.00   1112189.00
   95.22        3341.25           6769      250113.00   1130452.00
   95.24        3341.50           6773      251083.00   1135002.00
   95.27        3341.75           6777      247847.00   1119830.00
   95.31        3342.00           6781      238922.00   1078063.00
   95.33        3342.25           6784      230098.00   1036879.00
   95.36        3342.50           6788      217451.00    978045.70
   95.39        3342.75           6792      203210.00    912064.90
   95.42        3343.00           6795      192900.00    864473.00
   95.44        3343.25           6799      180078.00    805489.80
   95.47        3343.50           6803      166769.00    744504.10
   95.51        3343.75           6807      153523.00    684045.20
   95.53        3344.00           6811      140846.00    626404.30
   95.56        3344.25           6814      130517.00    579597.60
   95.59        3344.50           6818      116267.00    515254.20
   95.63        3344.75           6822      101901.00    450656.30
   95.65        3345.00           6826       87290.00    385231.50
   95.68        3345.25           6829       76176.00    335649.50
   95.71        3345.50           6833       61481.00    270333.70
   95.74        3345.75           6837       47191.00    207080.00
   95.77        3346.00           6841       32229.00    141125.90
   95.80        3346.25           6844       22191.00     97033.18
   95.83        3346.50           6848       11076.00     48354.63
   95.86        3346.75           6852        4212.00     18369.12
   95.88        3347.00           6856        1343.00      5852.88
   95.92        3347.25           6859         654.00      2848.56
   95.95        3347.50           6863         436.00      1898.11
   95.98        3347.75           6867         352.00      1531.90
   96.00        3348.00           6871         316.00      1374.95
   96.04        3348.25           6874         306.00      1331.36
   96.06        3348.50           6878         301.00      1309.56
   96.09        3348.75           6882         303.00      1318.28
   96.12        3349.00           6886         268.00      1165.69
   96.16        3349.25           6889         273.00      1187.49
   96.18        3349.50           6893         255.00      1109.02
   96.21        3349.75           6897         277.00      1204.93
   96.25        3350.00           6901         263.00      1143.90
   96.27        3350.25           6904         272.00      1183.13
   96.30        3350.50           6908         252.00      1095.94
   96.33        3350.75           6912         285.00      1239.81
   96.36        3351.00           6916         251.00      1091.58
HL scan finished at 01:38:18
end
