************************************************************
  HL Scan of (1) Internal mercury lamp
************************************************************
Integration time is 0.2294 seconds per sample
dh200718El Arenosillo 37.1 6.73 3.07pr1000
************************************************************
Dead Time -------------------------  3.2E-08 
Number of Cycles Used -------------  4 
Starting Wavelength (Angstroms) ---  3331 
Final Wavelength (Angstoms) -------  3351 
Wavelength Increment (Angstroms) --  .25 
Filter Wheel #1 Position ---------- (1) Ground quartz diffuser (ND=2.32)
Filter Wheel #2 Position ---------- 



************************************************************
HL scan start time = 01:31:46
Dark Count =  .6 


Time (GMT)  Wavelength (Ang)  Step Number  Raw Counts  Counts/Second

   93.22        3331.00           6616         145.00       629.48
   94.26        3331.25           6620         131.00       568.45
   94.28        3331.50           6623         140.00       607.68
   94.31        3331.75           6627         143.00       620.76
   94.34        3332.00           6631         128.00       555.37
   94.37        3332.25           6635         161.00       699.23
   94.40        3332.50           6638         124.00       537.93
   94.42        3332.75           6642         138.00       598.97
   94.46        3333.00           6646         140.00       607.68
   94.49        3333.25           6649         146.00       633.84
   94.51        3333.50           6653         138.00       598.97
   94.54        3333.75           6657         129.00       559.73
   94.57        3334.00           6661         138.00       598.97
   94.59        3334.25           6664         164.00       712.31
   94.62        3334.50           6668         158.00       686.15
   94.66        3334.75           6672         188.00       816.94
   94.68        3335.00           6676         232.00      1008.75
   94.71        3335.25           6679         245.00      1065.42
   94.74        3335.50           6683         279.00      1213.65
   94.77        3335.75           6687         574.00      2499.76
   94.80        3336.00           6691        2657.00     11584.07
   94.83        3336.25           6694        6541.00     28536.95
   94.86        3336.50           6698       14780.00     64559.57
   94.89        3336.75           6702       24088.00    105356.40
   94.92        3337.00           6706       33513.00    146774.90
   94.94        3337.25           6709       40471.00    177423.00
   94.98        3337.50           6713       49532.00    217424.70
   95.01        3337.75           6717       58090.00    255300.40
   95.04        3338.00           6721       67257.00    295974.00
   95.07        3338.25           6724       73992.00    325924.80
   95.10        3338.50           6728       82804.00    365199.50
   95.13        3338.75           6732       92252.00    407419.40
   95.16        3339.00           6736      101847.00    450414.00
   95.19        3339.25           6739      108878.00    481995.40
   95.22        3339.50           6743      118413.00    524927.00
   95.25        3339.75           6747      128038.00    568385.00
   95.28        3340.00           6751      137285.00    610251.40
   95.31        3340.25           6754      143559.00    638721.90
   95.34        3340.50           6758      152342.00    678666.30
   95.36        3340.75           6762      160295.00    714925.10
   95.40        3341.00           6766      165919.00    740617.30
   95.43        3341.25           6769      169107.00    755200.00
   95.45        3341.50           6773      170028.00    759415.50
   95.49        3341.75           6777      167101.00    746022.40
   95.52        3342.00           6781      161145.00    718805.50
   95.55        3342.25           6784      154755.00    689658.60
   95.57        3342.50           6788      145204.00    646195.40
   95.61        3342.75           6792      136142.00    605070.20
   95.63        3343.00           6795      129444.00    574743.40
   95.66        3343.25           6799      120454.00    534132.10
   95.69        3343.50           6803      110899.00    491085.10
   95.72        3343.75           6807      101417.00    448484.70
   95.75        3344.00           6811       92063.00    406573.60
   95.78        3344.25           6814       85409.00    376828.90
   95.82        3344.50           6818       75479.00    332545.30
   95.84        3344.75           6822       66324.00    291829.40
   95.87        3345.00           6826       56956.00    250276.30
   95.90        3345.25           6829       50006.00    219520.10
   95.93        3345.50           6833       40807.00    178904.50
   95.96        3345.75           6837       30943.00    135470.10
   95.99        3346.00           6841       21392.00     93528.86
   96.02        3346.25           6844       14240.00     62196.03
   96.05        3346.50           6848        6668.00     29091.59
   96.08        3346.75           6852        2128.00      9276.51
   96.11        3347.00           6856         591.00      2573.88
   96.14        3347.25           6859         328.00      1427.27
   96.17        3347.50           6863         260.00      1130.82
   96.20        3347.75           6867         224.00       973.88
   96.23        3348.00           6871         191.00       830.01
   96.26        3348.25           6874         170.00       738.47
   96.28        3348.50           6878         172.00       747.18
   96.31        3348.75           6882         157.00       681.79
   96.35        3349.00           6886         175.00       760.26
   96.38        3349.25           6889         145.00       629.48
   96.40        3349.50           6893         146.00       633.84
   96.43        3349.75           6897         161.00       699.23
   96.46        3350.00           6901         153.00       664.36
   96.49        3350.25           6904         140.00       607.68
   96.51        3350.50           6908         149.00       646.92
   96.55        3350.75           6912         142.00       616.40
   96.58        3351.00           6916         159.00       690.51
HL scan finished at 01:38:31
end
