************************************************************
  HL Scan of (1) Internal mercury lamp
************************************************************
Integration time is 0.2294 seconds per sample
dh030818El Arenosillo 37.1 6.73 3.31pr1000
************************************************************
Dead Time -------------------------  3.2E-08 
Number of Cycles Used -------------  4 
Starting Wavelength (Angstroms) ---  3331 
Final Wavelength (Angstoms) -------  3351 
Wavelength Increment (Angstroms) --  .25 
Filter Wheel #1 Position ---------- (1) Ground quartz diffuser (ND=2.32)
Filter Wheel #2 Position ---------- 



************************************************************
HL scan start time = 01:31:44
Dark Count =  1.4 


Time (GMT)  Wavelength (Ang)  Step Number  Raw Counts  Counts/Second

   93.19        3331.00           6616         141.00       608.56
   94.22        3331.25           6620         140.00       604.20
   94.25        3331.50           6623         143.00       617.27
   94.28        3331.75           6627         140.00       604.20
   94.31        3332.00           6631         133.00       573.68
   94.34        3332.25           6635         127.00       547.52
   94.37        3332.50           6638         163.00       704.46
   94.40        3332.75           6642         140.00       604.20
   94.43        3333.00           6646         141.00       608.56
   94.46        3333.25           6649         149.00       643.43
   94.48        3333.50           6653         135.00       582.40
   94.52        3333.75           6657         132.00       569.32
   94.55        3334.00           6661         126.00       543.17
   94.57        3334.25           6664         166.00       717.54
   94.60        3334.50           6668         171.00       739.34
   94.64        3334.75           6672         182.00       787.29
   94.66        3335.00           6676         218.00       944.23
   94.69        3335.25           6679         223.00       966.03
   94.73        3335.50           6683         289.00      1253.76
   94.75        3335.75           6687         503.00      2186.73
   94.78        3336.00           6691        2147.00      9355.90
   94.82        3336.25           6694        5687.00     24804.34
   94.85        3336.50           6698       13651.00     59614.93
   94.87        3336.75           6702       23528.00    102895.30
   94.90        3337.00           6706       33067.00    144809.00
   94.93        3337.25           6709       40217.00    176299.60
   94.96        3337.50           6713       50079.00    219839.30
   94.98        3337.75           6717       59168.00    260074.40
   95.02        3338.00           6721       68633.00    302084.80
   95.05        3338.25           6724       75535.00    332791.10
   95.08        3338.50           6728       85057.00    375253.40
   95.11        3338.75           6732       94826.00    418938.00
   95.14        3339.00           6736      103186.00    456419.90
   95.17        3339.25           6739      111630.00    494370.60
   95.20        3339.50           6743      121406.00    538424.00
   95.23        3339.75           6747      131477.00    583938.30
   95.26        3340.00           6751      141368.00    628769.90
   95.28        3340.25           6754      147562.00    656910.80
   95.32        3340.50           6758      158746.00    707852.60
   95.35        3340.75           6762      167650.00    748530.00
   95.37        3341.00           6766      173138.00    773654.80
   95.40        3341.25           6769      176214.00    787755.20
   95.43        3341.50           6773      177133.00    791970.50
   95.46        3341.75           6777      175131.00    782789.30
   95.49        3342.00           6781      169752.00    758148.40
   95.52        3342.25           6784      163472.00    729429.70
   95.55        3342.50           6788      154086.00    686606.50
   95.58        3342.75           6792      144283.00    642007.10
   95.61        3343.00           6795      136721.00    607690.90
   95.64        3343.25           6799      126681.00    562246.90
   95.67        3343.50           6803      117142.00    519193.80
   95.70        3343.75           6807      107459.00    475612.80
   95.73        3344.00           6811       98173.00    433933.40
   95.76        3344.25           6814       91908.00    405876.50
   95.79        3344.50           6818       82154.00    362295.50
   95.83        3344.75           6822       72108.00    317537.20
   95.85        3345.00           6826       62057.00    272885.20
   95.88        3345.25           6829       54082.00    237546.90
   95.91        3345.50           6833       43711.00    191711.30
   95.94        3345.75           6837       33341.00    146014.60
   95.97        3346.00           6841       22858.00     99955.66
   96.00        3346.25           6844       15382.00     67191.40
   96.03        3346.50           6848        7238.00     31577.67
   96.06        3346.75           6852        2425.00     10568.53
   96.09        3347.00           6856         713.00      3102.31
   96.12        3347.25           6859         372.00      1615.60
   96.15        3347.50           6863         262.00      1136.05
   96.18        3347.75           6867         220.00       952.95
   96.21        3348.00           6871         181.00       782.93
   96.24        3348.25           6874         170.00       734.98
   96.27        3348.50           6878         168.00       726.26
   96.30        3348.75           6882         167.00       721.90
   96.33        3349.00           6886         152.00       656.51
   96.36        3349.25           6889         153.00       660.87
   96.39        3349.50           6893         145.00       625.99
   96.42        3349.75           6897         158.00       682.67
   96.45        3350.00           6901         143.00       617.27
   96.48        3350.25           6904         157.00       678.31
   96.50        3350.50           6908         156.00       673.95
   96.54        3350.75           6912         151.00       652.15
   96.57        3351.00           6916         150.00       647.79
HL scan finished at 01:38:30
end
