************************************************************
  HL Scan of (1) Internal mercury lamp
************************************************************
Integration time is 0.2294 seconds per sample
dh170817El Arenosillo 37.1 6.73 3.35pr1000
************************************************************
Dead Time -------------------------  3.2E-08 
Number of Cycles Used -------------  4 
Starting Wavelength (Angstroms) ---  3331 
Final Wavelength (Angstoms) -------  3351 
Wavelength Increment (Angstroms) --  .25 
Filter Wheel #1 Position ---------- (1) Ground quartz diffuser (ND=2.32)
Filter Wheel #2 Position ---------- 



************************************************************
HL scan start time = 01:26:51
Dark Count =  1.5 


Time (GMT)  Wavelength (Ang)  Step Number  Raw Counts  Counts/Second

   88.28        3331.00           6616         208.00       900.20
   89.32        3331.25           6620         223.00       965.59
   89.35        3331.50           6623         223.00       965.59
   89.38        3331.75           6627         222.00       961.23
   89.40        3332.00           6631         205.00       887.12
   89.44        3332.25           6635         220.00       952.51
   89.47        3332.50           6638         225.00       974.31
   89.49        3332.75           6642         218.00       943.79
   89.52        3333.00           6646         204.00       882.76
   89.56        3333.25           6649         212.00       917.64
   89.58        3333.50           6653         203.00       878.40
   89.61        3333.75           6657         222.00       961.23
   89.64        3334.00           6661         216.00       935.08
   89.67        3334.25           6664         230.00       996.11
   89.70        3334.50           6668         253.00      1096.38
   89.73        3334.75           6672         287.00      1244.60
   89.76        3335.00           6676         308.00      1336.15
   89.79        3335.25           6679         361.00      1567.21
   89.82        3335.50           6683         475.00      2064.22
   89.85        3335.75           6687         976.00      4248.62
   89.88        3336.00           6691        3810.00     16610.83
   89.91        3336.25           6694        9464.00     41303.47
   89.94        3336.50           6698       20813.00     90985.97
   89.97        3336.75           6702       34450.00    150894.70
   89.99        3337.00           6706       49084.00    215440.50
   90.03        3337.25           6709       59205.00    260238.00
   90.06        3337.50           6713       72735.00    320326.50
   90.09        3337.75           6717       86445.00    381452.30
   90.11        3338.00           6721       72256.00    318195.20
   90.13        3338.25           6724      112217.00    497011.70
   90.16        3338.50           6728      126246.00    560280.50
   90.19        3338.75           6732      140573.00    625161.10
   90.22        3339.00           6736      154498.00    688483.30
   90.25        3339.25           6739      164692.00    735004.20
   90.28        3339.50           6743      178890.00    800032.10
   90.31        3339.75           6747      192777.00    863901.90
   90.34        3340.00           6751      206474.00    927158.40
   90.37        3340.25           6754      217643.00    978933.00
   90.40        3340.50           6758      231558.00   1043682.00
   90.43        3340.75           6762      243297.00   1098518.00
   90.46        3341.00           6766      252379.00   1141078.00
   90.49        3341.25           6769      256900.00   1162308.00
   90.52        3341.50           6773      259189.00   1173068.00
   90.55        3341.75           6777      256132.00   1158700.00
   90.57        3342.00           6781      248588.00   1123298.00
   90.61        3342.25           6784      239097.00   1078876.00
   90.64        3342.50           6788      226613.00   1020641.00
   90.66        3342.75           6792      212699.00    955993.20
   90.69        3343.00           6795      201953.00    906250.40
   90.73        3343.25           6799      187740.00    840704.90
   90.75        3343.50           6803      173771.00    776555.10
   90.78        3343.75           6807      159699.00    712200.80
   90.81        3344.00           6811      145791.00    648859.00
   90.84        3344.25           6814      136072.00    604748.80
   90.87        3344.50           6818      121709.00    539791.00
   90.90        3344.75           6822      107780.00    477055.20
   90.93        3345.00           6826       92524.00    408632.50
   90.96        3345.25           6829       81610.00    359868.00
   90.99        3345.50           6833       66162.00    291105.90
   91.02        3345.75           6837       51154.00    224592.20
   91.05        3346.00           6841       36017.00    157793.40
   91.08        3346.25           6844       24890.00    108872.50
   91.11        3346.50           6848       12972.00     56643.56
   91.14        3346.75           6852        5106.00     22267.39
   91.16        3347.00           6856        1528.00      6655.73
   91.20        3347.25           6859         770.00      3350.40
   91.23        3347.50           6863         473.00      2055.50
   91.25        3347.75           6867         379.00      1645.68
   91.28        3348.00           6871         313.00      1357.95
   91.32        3348.25           6874         311.00      1349.23
   91.34        3348.50           6878         283.00      1227.16
   91.37        3348.75           6882         267.00      1157.41
   91.40        3349.00           6886         253.00      1096.38
   91.43        3349.25           6889         278.00      1205.36
   91.46        3349.50           6893         270.00      1170.49
   91.49        3349.75           6897         277.00      1201.01
   91.52        3350.00           6901         276.00      1196.65
   91.55        3350.25           6904         292.00      1266.40
   91.58        3350.50           6908         243.00      1052.78
   91.61        3350.75           6912         256.00      1109.46
   91.63        3351.00           6916         287.00      1244.60
HL scan finished at 01:33:35
end
