************************************************************
  HL Scan of (1) Internal mercury lamp
************************************************************
Integration time is 0.2294 seconds per sample
dh100818El Arenosillo 37.1 6.73 3.13pr1000
************************************************************
Dead Time -------------------------  3.2E-08 
Number of Cycles Used -------------  4 
Starting Wavelength (Angstroms) ---  3331 
Final Wavelength (Angstoms) -------  3351 
Wavelength Increment (Angstroms) --  .25 
Filter Wheel #1 Position ---------- (1) Ground quartz diffuser (ND=2.32)
Filter Wheel #2 Position ---------- 



************************************************************
HL scan start time = 01:28:11
Dark Count =  1.1 


Time (GMT)  Wavelength (Ang)  Step Number  Raw Counts  Counts/Second

   89.64        3331.00           6616         138.00       596.79
   90.67        3331.25           6620         146.00       631.66
   90.70        3331.50           6623         145.00       627.30
   90.74        3331.75           6627         123.00       531.40
   90.76        3332.00           6631         147.00       636.02
   90.79        3332.25           6635         149.00       644.74
   90.82        3332.50           6638         143.00       618.58
   90.85        3332.75           6642         154.00       666.54
   90.88        3333.00           6646         120.00       518.32
   90.91        3333.25           6649         119.00       513.96
   90.94        3333.50           6653         134.00       579.35
   90.97        3333.75           6657         142.00       614.22
   91.00        3334.00           6661         139.00       601.14
   91.03        3334.25           6664         164.00       710.13
   91.06        3334.50           6668         153.00       662.18
   91.09        3334.75           6672         186.00       806.04
   91.12        3335.00           6676         234.00      1015.29
   91.15        3335.25           6679         253.00      1098.12
   91.18        3335.50           6683         297.00      1289.94
   91.21        3335.75           6687         500.00      2174.96
   91.24        3336.00           6691        1908.00      8314.77
   91.27        3336.25           6694        5089.00     22194.92
   91.30        3336.50           6698       12387.00     54086.12
   91.33        3336.75           6702       21671.00     94750.24
   91.36        3337.00           6706       31372.00    137354.40
   91.39        3337.25           6709       38575.00    169063.40
   91.42        3337.50           6713       48859.00    214447.80
   91.45        3337.75           6717       58049.00    255116.50
   91.48        3338.00           6721       66984.00    294758.90
   91.51        3338.25           6724       73899.00    325508.60
   91.54        3338.50           6728       83696.00    369178.30
   91.57        3338.75           6732       93403.00    412568.40
   91.60        3339.00           6736      103089.00    455985.80
   91.63        3339.25           6739      110857.00    490893.90
   91.66        3339.50           6743      120538.00    534508.80
   91.69        3339.75           6747      130347.00    578826.10
   91.72        3340.00           6751      141095.00    627532.10
   91.75        3340.25           6754      147458.00    656439.30
   91.78        3340.50           6758      157036.00    700054.30
   91.81        3340.75           6762      166695.00    744163.30
   91.84        3341.00           6766      173467.00    775163.90
   91.87        3341.25           6769      175982.00    786692.80
   91.90        3341.50           6773      177159.00    792091.10
   91.93        3341.75           6777      175455.00    784276.30
   91.96        3342.00           6781      170062.00    759568.80
   91.99        3342.25           6784      163860.00    731203.90
   92.02        3342.50           6788      154439.00    688216.30
   92.05        3342.75           6792      144747.00    644116.50
   92.08        3343.00           6795      137382.00    610688.80
   92.11        3343.25           6799      128036.00    568373.60
   92.14        3343.50           6803      118451.00    525096.10
   92.17        3343.75           6807      108979.00    482447.20
   92.20        3344.00           6811       99870.00    441543.20
   92.23        3344.25           6814       92465.00    408370.20
   92.26        3344.50           6818       82269.00    362809.90
   92.29        3344.75           6822       72069.00    317365.00
   92.32        3345.00           6826       61741.00    271484.80
   92.35        3345.25           6829       53526.00    235087.50
   92.38        3345.50           6833       43462.00    190613.80
   92.41        3345.75           6837       33431.00    146411.90
   92.45        3346.00           6841       23175.00    101347.80
   92.47        3346.25           6844       16041.00     70078.08
   92.50        3346.50           6848        7726.00     33710.71
   92.54        3346.75           6852        2668.00     11629.87
   92.56        3347.00           6856         804.00      3500.39
   92.59        3347.25           6859         427.00      1856.69
   92.62        3347.50           6863         267.00      1159.15
   92.65        3347.75           6867         232.00      1006.57
   92.68        3348.00           6871         178.00       771.16
   92.71        3348.25           6874         176.00       762.44
   92.74        3348.50           6878         164.00       710.13
   92.77        3348.75           6882         161.00       697.05
   92.80        3349.00           6886         153.00       662.18
   92.83        3349.25           6889         150.00       649.10
   92.86        3349.50           6893         149.00       644.74
   92.89        3349.75           6897         148.00       640.38
   92.92        3350.00           6901         154.00       666.54
   92.95        3350.25           6904         150.00       649.10
   92.98        3350.50           6908         163.00       705.77
   93.01        3350.75           6912         145.00       627.30
   93.04        3351.00           6916         150.00       649.10
HL scan finished at 01:34:59
end
