************************************************************
  HL Scan of (1) Internal mercury lamp
************************************************************
Integration time is 0.2294 seconds per sample
dh170818El Arenosillo 37.1 6.73 2.96pr1000
************************************************************
Dead Time -------------------------  3.2E-08 
Number of Cycles Used -------------  4 
Starting Wavelength (Angstroms) ---  3331 
Final Wavelength (Angstoms) -------  3351 
Wavelength Increment (Angstroms) --  .25 
Filter Wheel #1 Position ---------- (1) Ground quartz diffuser (ND=2.32)
Filter Wheel #2 Position ---------- 



************************************************************
HL scan start time = 01:29:52
Dark Count =  .8 


Time (GMT)  Wavelength (Ang)  Step Number  Raw Counts  Counts/Second

   91.32        3331.00           6616         176.00       763.75
   92.36        3331.25           6620         123.00       532.70
   92.39        3331.50           6623         131.00       567.58
   92.42        3331.75           6627         120.00       519.63
   92.44        3332.00           6631         141.00       611.17
   92.48        3332.25           6635         135.00       585.02
   92.51        3332.50           6638         140.00       606.81
   92.53        3332.75           6642         131.00       567.58
   92.57        3333.00           6646         136.00       589.37
   92.60        3333.25           6649         142.00       615.53
   92.62        3333.50           6653         153.00       663.48
   92.65        3333.75           6657         166.00       720.16
   92.68        3334.00           6661         132.00       571.94
   92.71        3334.25           6664         144.00       624.25
   92.74        3334.50           6668         153.00       663.48
   92.76        3334.75           6672         192.00       833.50
   92.80        3335.00           6676         209.00       907.61
   92.83        3335.25           6679         293.00      1273.81
   92.86        3335.50           6683         291.00      1265.09
   92.89        3335.75           6687         456.00      1984.43
   92.91        3336.00           6691        1536.00      6693.67
   92.95        3336.25           6694        4037.00     17604.51
   92.98        3336.50           6698       11191.00     48856.62
   93.01        3336.75           6702       20104.00     87880.61
   93.04        3337.00           6706       29498.00    129116.50
   93.07        3337.25           6709       35914.00    157343.00
   93.10        3337.50           6713       45262.00    198560.20
   93.13        3337.75           6717       54339.00    238687.10
   93.16        3338.00           6721       63172.00    277835.00
   93.19        3338.25           6724       70034.00    308315.50
   93.22        3338.50           6728       79103.00    348691.30
   93.25        3338.75           6732       88579.00    390991.50
   93.29        3339.00           6736       97271.00    429893.50
   93.31        3339.25           6739      104347.00    461635.10
   93.35        3339.50           6743      113248.00    501655.80
   93.38        3339.75           6747      122845.00    544921.90
   93.40        3340.00           6751      131751.00    585181.30
   93.44        3340.25           6754      138732.00    616812.10
   93.47        3340.50           6758      147109.00    654853.80
   93.50        3340.75           6762      155570.00    693372.00
   93.53        3341.00           6766      162410.00    724581.20
   93.55        3341.25           6769      165269.00    737644.70
   93.59        3341.50           6773      167318.00    747014.00
   93.62        3341.75           6777      165872.00    740401.50
   93.65        3342.00           6781      160426.00    715522.20
   93.68        3342.25           6784      154667.00    689256.60
   93.70        3342.50           6788      145267.00    646480.80
   93.74        3342.75           6792      136423.00    606342.80
   93.77        3343.00           6795      129780.00    576262.40
   93.79        3343.25           6799      120333.00    533585.40
   93.83        3343.50           6803      110886.00    491025.70
   93.86        3343.75           6807      101574.00    449188.20
   93.89        3344.00           6811       92438.00    408250.80
   93.92        3344.25           6814       85410.00    376832.50
   93.95        3344.50           6818       75649.00    333301.50
   93.99        3344.75           6822       66813.00    294000.60
   94.01        3345.00           6826       57727.00    253691.10
   94.04        3345.25           6829       51158.00    224613.00
   94.08        3345.50           6833       41853.00    183516.60
   94.10        3345.75           6837       32713.00    143254.20
   94.14        3346.00           6841       23172.00    101335.90
   94.16        3346.25           6844       15842.00     69208.03
   94.19        3346.50           6848        7882.00     34393.55
   94.23        3346.75           6852        2788.00     12154.68
   94.26        3347.00           6856         766.00      3336.01
   94.29        3347.25           6859         438.00      1905.96
   94.32        3347.50           6863         297.00      1291.25
   94.34        3347.75           6867         248.00      1077.63
   94.38        3348.00           6871         194.00       842.22
   94.41        3348.25           6874         170.00       737.59
   94.43        3348.50           6878         181.00       785.55
   94.47        3348.75           6882         161.00       698.36
   94.50        3349.00           6886         160.00       694.00
   94.53        3349.25           6889         153.00       663.48
   94.56        3349.50           6893         170.00       737.59
   94.59        3349.75           6897         150.00       650.41
   94.62        3350.00           6901         154.00       667.84
   94.65        3350.25           6904         145.00       628.61
   94.68        3350.50           6908         151.00       654.77
   94.71        3350.75           6912         159.00       689.64
   94.74        3351.00           6916         159.00       689.64
HL scan finished at 01:36:41
end
