************************************************************
  HL Scan of (1) Internal mercury lamp
************************************************************
Integration time is 0.2294 seconds per sample
dh240818El Arenosillo 37.1 6.73 3.15pr1000
************************************************************
Dead Time -------------------------  3.2E-08 
Number of Cycles Used -------------  4 
Starting Wavelength (Angstroms) ---  3331 
Final Wavelength (Angstoms) -------  3351 
Wavelength Increment (Angstroms) --  .25 
Filter Wheel #1 Position ---------- (1) Ground quartz diffuser (ND=2.32)
Filter Wheel #2 Position ---------- 



************************************************************
HL scan start time = 01:27:58
Dark Count =  1.3 


Time (GMT)  Wavelength (Ang)  Step Number  Raw Counts  Counts/Second

   89.42        3331.00           6616         143.00       617.71
   90.45        3331.25           6620         146.00       630.79
   90.49        3331.50           6623         128.00       552.32
   90.52        3331.75           6627         167.00       722.34
   90.54        3332.00           6631         151.00       652.59
   90.58        3332.25           6635         180.00       779.01
   90.60        3332.50           6638         138.00       595.91
   90.63        3332.75           6642         154.00       665.66
   90.67        3333.00           6646         145.00       626.43
   90.69        3333.25           6649         133.00       574.12
   90.72        3333.50           6653         137.00       591.55
   90.75        3333.75           6657         145.00       626.43
   90.78        3334.00           6661         146.00       630.79
   90.81        3334.25           6664         165.00       713.62
   90.84        3334.50           6668         174.00       752.85
   90.87        3334.75           6672         196.00       848.76
   90.90        3335.00           6676         249.00      1079.81
   90.93        3335.25           6679         253.00      1097.25
   90.97        3335.50           6683         311.00      1350.10
   90.99        3335.75           6687         498.00      2165.36
   91.02        3336.00           6691        1907.00      8309.53
   91.06        3336.25           6694        4975.00     21696.40
   91.09        3336.50           6698       12721.00     55546.34
   91.12        3336.75           6702       22831.00     99837.63
   91.15        3337.00           6706       32946.00    144277.10
   91.17        3337.25           6709       40469.00    177411.10
   91.21        3337.50           6713       50583.00    222068.10
   91.24        3337.75           6717       60424.00    265643.10
   91.27        3338.00           6721       69465.00    305783.60
   91.30        3338.25           6724       76641.00    337717.70
   91.33        3338.50           6728       86616.00    382217.10
   91.36        3338.75           6732       96457.00    426243.90
   91.39        3339.00           6736      106488.00    471249.80
   91.42        3339.25           6739      114091.00    505449.20
   91.45        3339.50           6743      124081.00    550500.70
   91.48        3339.75           6747      133974.00    595244.40
   91.51        3340.00           6751      143670.00    639222.90
   91.54        3340.25           6754      151011.00    672603.20
   91.57        3340.50           6758      160871.00    717551.30
   91.60        3340.75           6762      169980.00    759192.50
   91.63        3341.00           6766      177497.00    793640.90
   91.66        3341.25           6769      180669.00    808200.30
   91.69        3341.50           6773      181592.00    812439.50
   91.72        3341.75           6777      179587.00    803232.40
   91.75        3342.00           6781      173741.00    776418.50
   91.78        3342.25           6784      167210.00    746517.80
   91.81        3342.50           6788      157874.00    703875.30
   91.84        3342.75           6792      148285.00    660199.30
   91.87        3343.00           6795      140514.00    624894.30
   91.90        3343.25           6799      130529.00    579648.80
   91.93        3343.50           6803      120738.00    535410.30
   91.96        3343.75           6807      110235.00    488094.90
   91.99        3344.00           6811      100328.00    443596.40
   92.02        3344.25           6814       93113.00    411269.50
   92.05        3344.50           6818       84041.00    370717.50
   92.08        3344.75           6822       74395.00    327715.60
   92.11        3345.00           6826       64307.00    282870.20
   92.14        3345.25           6829       56663.00    248975.30
   92.17        3345.50           6833       46235.00    202854.40
   92.20        3345.75           6837       35280.00    154549.30
   92.23        3346.00           6841       24374.00    106608.50
   92.26        3346.25           6844       16599.00     72520.76
   92.28        3346.50           6848        7858.00     34286.51
   92.32        3346.75           6852        2792.00     12169.95
   92.35        3347.00           6856         831.00      3617.25
   92.38        3347.25           6859         451.00      1960.45
   92.41        3347.50           6863         310.00      1345.74
   92.44        3347.75           6867         235.00      1018.78
   92.48        3348.00           6871         204.00       883.63
   92.50        3348.25           6874         181.00       783.37
   92.53        3348.50           6878         170.00       735.41
   92.56        3348.75           6882         159.00       687.46
   92.59        3349.00           6886         166.00       717.98
   92.63        3349.25           6889         142.00       613.35
   92.66        3349.50           6893         161.00       696.18
   92.68        3349.75           6897         167.00       722.34
   92.72        3350.00           6901         160.00       691.82
   92.74        3350.25           6904         166.00       717.98
   92.78        3350.50           6908         153.00       661.30
   92.81        3350.75           6912         161.00       696.18
   92.83        3351.00           6916         160.00       691.82
HL scan finished at 01:34:47
end
