************************************************************
  HL Scan of (1) Internal mercury lamp
************************************************************
Integration time is 0.2294 seconds per sample
dh240817El Arenosillo 37.1 6.73 3.19pr1000
************************************************************
Dead Time -------------------------  3.2E-08 
Number of Cycles Used -------------  4 
Starting Wavelength (Angstroms) ---  3331 
Final Wavelength (Angstoms) -------  3351 
Wavelength Increment (Angstroms) --  .25 
Filter Wheel #1 Position ---------- (1) Ground quartz diffuser (ND=2.32)
Filter Wheel #2 Position ---------- 



************************************************************
HL scan start time = 01:26:24
Dark Count =  1.2 


Time (GMT)  Wavelength (Ang)  Step Number  Raw Counts  Counts/Second

   87.84        3331.00           6616         222.00       962.54
   88.88        3331.25           6620         233.00      1010.49
   88.91        3331.50           6623         227.00       984.34
   88.93        3331.75           6627         212.00       918.95
   88.96        3332.00           6631         240.00      1041.01
   89.00        3332.25           6635         209.00       905.87
   89.03        3332.50           6638         205.00       888.43
   89.05        3332.75           6642         209.00       905.87
   89.08        3333.00           6646         203.00       879.71
   89.12        3333.25           6649         202.00       875.35
   89.14        3333.50           6653         200.00       866.63
   89.17        3333.75           6657         215.00       932.02
   89.20        3334.00           6661         223.00       966.90
   89.23        3334.25           6664         243.00      1054.09
   89.26        3334.50           6668         228.00       988.70
   89.29        3334.75           6672         291.00      1263.35
   89.32        3335.00           6676         288.00      1250.27
   89.35        3335.25           6679         330.00      1433.37
   89.38        3335.50           6683         406.00      1764.70
   89.41        3335.75           6687         663.00      2885.18
   89.44        3336.00           6691        2326.00     10137.55
   89.46        3336.25           6694        6050.00     26390.19
   89.49        3336.50           6698       14864.00     64924.64
   89.51        3336.75           6702       26497.00    115929.70
   89.55        3337.00           6706       40013.00    175401.10
   89.58        3337.25           6709       49306.00    216423.10
   89.60        3337.50           6713       62122.00    273174.50
   89.63        3337.75           6717       75534.00    332787.50
   89.67        3338.00           6721       88343.00    389934.70
   89.69        3338.25           6724       98763.00    436579.10
   89.72        3338.50           6728      112279.00    497292.20
   89.75        3338.75           6732      126016.00    559242.50
   89.78        3339.00           6736      139157.00    618738.00
   89.81        3339.25           6739      149121.00    664002.70
   89.84        3339.50           6743      162396.00    724515.40
   89.87        3339.75           6747      175899.00    786311.60
   89.90        3340.00           6751      188629.00    844797.90
   89.93        3340.25           6754      198683.00    891147.00
   89.96        3340.50           6758      211395.00    949949.90
   89.99        3340.75           6762      223113.00   1004355.00
   90.02        3341.00           6766      232383.00   1047530.00
   90.05        3341.25           6769      236666.00   1067520.00
   90.07        3341.50           6773      238626.00   1076677.00
   90.10        3341.75           6777      236290.00   1065764.00
   90.13        3342.00           6781      230141.00   1037077.00
   90.16        3342.25           6784      222335.00   1000737.00
   90.19        3342.50           6788      210086.00    943884.30
   90.22        3342.75           6792      196636.00    881698.90
   90.25        3343.00           6795      186701.00    835925.60
   90.28        3343.25           6799      173081.00    773394.70
   90.30        3343.50           6803      159252.00    710162.30
   90.34        3343.75           6807      145260.00    646447.10
   90.36        3344.00           6811      131613.00    584554.80
   90.39        3344.25           6814      122013.00    541164.40
   90.42        3344.50           6818      108546.00    480499.90
   90.45        3344.75           6822       95442.00    421697.70
   90.48        3345.00           6826       82544.00    364036.50
   90.51        3345.25           6829       72385.00    318770.50
   90.54        3345.50           6833       58529.00    257243.20
   90.57        3345.75           6837       45257.00    198536.40
   90.60        3346.00           6841       31310.00    137081.30
   90.62        3346.25           6844       21411.00     93609.56
   90.66        3346.50           6848       10843.00     47333.19
   90.69        3346.75           6852        4054.00     17676.95
   90.71        3347.00           6856        1207.00      5257.21
   90.74        3347.25           6859         657.00      2859.02
   90.77        3347.50           6863         455.00      1978.33
   90.79        3347.75           6867         351.00      1524.92
   90.82        3348.00           6871         306.00      1328.74
   90.85        3348.25           6874         286.00      1241.55
   90.88        3348.50           6878         288.00      1250.27
   90.91        3348.75           6882         269.00      1167.44
   90.94        3349.00           6886         267.00      1158.72
   90.97        3349.25           6889         253.00      1097.68
   91.00        3349.50           6893         244.00      1058.45
   91.03        3349.75           6897         268.00      1163.08
   91.05        3350.00           6901         242.00      1049.73
   91.08        3350.25           6904         262.00      1136.92
   91.11        3350.50           6908         246.00      1067.17
   91.14        3350.75           6912         247.00      1071.53
   91.17        3351.00           6916         253.00      1097.68
HL scan finished at 01:33:06
end
