************************************************************
  HL Scan of (1) Internal mercury lamp
************************************************************
Integration time is 0.2294 seconds per sample
dh310817El Arenosillo 37.1 6.73 3.05pr1000
************************************************************
Dead Time -------------------------  3.2E-08 
Number of Cycles Used -------------  4 
Starting Wavelength (Angstroms) ---  3331 
Final Wavelength (Angstoms) -------  3351 
Wavelength Increment (Angstroms) --  .25 
Filter Wheel #1 Position ---------- (1) Ground quartz diffuser (ND=2.32)
Filter Wheel #2 Position ---------- 



************************************************************
HL scan start time = 01:24:57
Dark Count =  .9 


Time (GMT)  Wavelength (Ang)  Step Number  Raw Counts  Counts/Second

   86.41        3331.00           6616         199.00       863.58
   87.44        3331.25           6620         218.00       946.41
   87.47        3331.50           6623         190.00       824.35
   87.50        3331.75           6627         204.00       885.38
   87.53        3332.00           6631         196.00       850.50
   87.56        3332.25           6635         203.00       881.02
   87.59        3332.50           6638         212.00       920.25
   87.62        3332.75           6642         201.00       872.30
   87.64        3333.00           6646         204.00       885.38
   87.68        3333.25           6649         204.00       885.38
   87.71        3333.50           6653         222.00       963.85
   87.74        3333.75           6657         204.00       885.38
   87.77        3334.00           6661         222.00       963.85
   87.80        3334.25           6664         214.00       928.97
   87.83        3334.50           6668         229.00       994.36
   87.86        3334.75           6672         260.00      1129.51
   87.89        3335.00           6676         304.00      1321.33
   87.92        3335.25           6679         321.00      1395.44
   87.95        3335.50           6683         400.00      1739.85
   87.98        3335.75           6687         752.00      3274.54
   88.01        3336.00           6691        2598.00     11325.38
   88.04        3336.25           6694        6345.00     27679.70
   88.07        3336.50           6698       15586.00     68086.73
   88.10        3336.75           6702       26604.00    116400.90
   88.13        3337.00           6706       39306.00    172285.90
   88.16        3337.25           6709       48226.00    211651.40
   88.19        3337.50           6713       60471.00    265853.30
   88.22        3337.75           6717       72648.00    319942.00
   88.25        3338.00           6721       85297.00    376327.30
   88.28        3338.25           6724       94655.00    418174.50
   88.31        3338.50           6728      107661.00    476523.00
   88.34        3338.75           6732      120401.00    533891.70
   88.37        3339.00           6736      132953.00    590622.40
   88.40        3339.25           6739      142815.00    635341.60
   88.43        3339.50           6743      155351.00    692373.30
   88.46        3339.75           6747      167845.00    749424.30
   88.50        3340.00           6751      179330.00    802054.50
   88.52        3340.25           6754      189231.00    847570.50
   88.55        3340.50           6758      201969.00    906327.20
   88.58        3340.75           6762      211645.00    951110.00
   88.61        3341.00           6766      220014.00    989949.10
   88.64        3341.25           6769      223873.00   1007891.00
   88.67        3341.50           6773      225190.00   1014019.00
   88.70        3341.75           6777      223470.00   1006017.00
   88.72        3342.00           6781      216727.00    974682.90
   88.76        3342.25           6784      209470.00    941032.10
   88.79        3342.50           6788      197629.00    886282.90
   88.82        3342.75           6792      185105.00    828586.50
   88.85        3343.00           6795      174987.00    782131.50
   88.88        3343.25           6799      162586.00    725384.50
   88.90        3343.50           6803      148694.00    662061.50
   88.94        3343.75           6807      135717.00    603142.60
   88.97        3344.00           6811      123365.00    547269.30
   88.99        3344.25           6814      114490.00    507247.80
   89.03        3344.50           6818      101484.00    448783.90
   89.06        3344.75           6822       88962.00    392703.10
   89.09        3345.00           6826       76857.00    338681.80
   89.12        3345.25           6829       67006.00    294857.50
   89.15        3345.50           6833       54141.00    237810.30
   89.18        3345.75           6837       41521.00    182051.90
   89.21        3346.00           6841       28183.00    123337.20
   89.24        3346.25           6844       19298.00     84347.22
   89.26        3346.50           6848        9184.00     40082.33
   89.30        3346.75           6852        3365.00     14671.66
   89.33        3347.00           6856        1086.00      4730.88
   89.35        3347.25           6859         587.00      2555.13
   89.39        3347.50           6863         417.00      1813.97
   89.41        3347.75           6867         343.00      1491.35
   89.44        3348.00           6871         298.00      1295.17
   89.48        3348.25           6874         265.00      1151.31
   89.50        3348.50           6878         261.00      1133.87
   89.53        3348.75           6882         270.00      1173.10
   89.57        3349.00           6886         230.00       998.72
   89.59        3349.25           6889         243.00      1055.40
   89.62        3349.50           6893         210.00       911.54
   89.65        3349.75           6897         262.00      1138.23
   89.68        3350.00           6901         225.00       976.93
   89.71        3350.25           6904         225.00       976.93
   89.74        3350.50           6908         231.00      1003.08
   89.77        3350.75           6912         229.00       994.36
   89.80        3351.00           6916         226.00       981.29
HL scan finished at 01:31:45
end
