************************************************************
  HL Scan of (1) Internal mercury lamp
************************************************************
Integration time is 0.2294 seconds per sample
dh310818El Arenosillo 37.1 6.73 3.17pr1000
************************************************************
Dead Time -------------------------  3.2E-08 
Number of Cycles Used -------------  4 
Starting Wavelength (Angstroms) ---  3331 
Final Wavelength (Angstoms) -------  3351 
Wavelength Increment (Angstroms) --  .25 
Filter Wheel #1 Position ---------- (1) Ground quartz diffuser (ND=2.32)
Filter Wheel #2 Position ---------- 



************************************************************
HL scan start time = 01:25:43
Dark Count =  1.1 


Time (GMT)  Wavelength (Ang)  Step Number  Raw Counts  Counts/Second

   87.16        3331.00           6616         142.00       614.22
   88.19        3331.25           6620         133.00       574.99
   88.22        3331.50           6623         151.00       653.46
   88.26        3331.75           6627         147.00       636.02
   88.28        3332.00           6631         135.00       583.71
   88.32        3332.25           6635         139.00       601.14
   88.35        3332.50           6638         141.00       609.86
   88.37        3332.75           6642         137.00       592.43
   88.41        3333.00           6646         155.00       670.89
   88.43        3333.25           6649         156.00       675.25
   88.46        3333.50           6653         147.00       636.02
   88.49        3333.75           6657         152.00       657.82
   88.52        3334.00           6661         134.00       579.35
   88.56        3334.25           6664         151.00       653.46
   88.58        3334.50           6668         172.00       745.00
   88.61        3334.75           6672         200.00       867.07
   88.64        3335.00           6676         227.00       984.77
   88.67        3335.25           6679         284.00      1233.27
   88.71        3335.50           6683         330.00      1433.81
   88.73        3335.75           6687         608.00      2645.82
   88.76        3336.00           6691        2263.00      9863.18
   88.79        3336.25           6694        5729.00     24989.03
   88.82        3336.50           6698       13531.00     59091.15
   88.85        3336.75           6702       23363.00    102172.70
   88.88        3337.00           6706       33203.00    145408.70
   88.91        3337.25           6709       40734.00    178580.40
   88.94        3337.50           6713       51442.00    225867.70
   88.97        3337.75           6717       61131.00    268779.20
   89.00        3338.00           6721       71156.00    313303.70
   89.04        3338.25           6724       78530.00    346135.80
   89.06        3338.50           6728       88864.00    392264.10
   89.09        3338.75           6732       99332.00    439130.70
   89.13        3339.00           6736      110039.00    487214.20
   89.16        3339.25           6739      118008.00    523098.80
   89.19        3339.50           6743      128511.00    570521.50
   89.22        3339.75           6747      138979.00    617931.00
   89.24        3340.00           6751      149915.00    667615.90
   89.28        3340.25           6754      157495.00    702147.60
   89.31        3340.50           6758      167007.00    745590.30
   89.34        3340.75           6762      176256.00    787949.40
   89.37        3341.00           6766      183133.00    819520.50
   89.39        3341.25           6769      186012.00    832756.80
   89.43        3341.50           6773      186885.00    836772.70
   89.46        3341.75           6777      184330.00    825022.40
   89.48        3342.00           6781      177982.00    795867.10
   89.52        3342.25           6784      171695.00    767046.10
   89.55        3342.50           6788      162342.00    724269.30
   89.58        3342.75           6792      152836.00    680913.80
   89.61        3343.00           6795      144433.00    642689.90
   89.63        3343.25           6799      133778.00    594357.60
   89.67        3343.50           6803      123104.00    546089.90
   89.69        3343.75           6807      112314.00    497450.10
   89.72        3344.00           6811      101476.00    448747.20
   89.75        3344.25           6814       93520.00    413092.10
   89.78        3344.50           6818       82954.00    365866.60
   89.82        3344.75           6822       72723.00    320274.80
   89.84        3345.00           6826       62565.00    275140.30
   89.87        3345.25           6829       54379.00    238862.90
   89.91        3345.50           6833       43743.00    191853.90
   89.93        3345.75           6837       33033.00    144660.70
   89.96        3346.00           6841       22580.00     98737.38
   89.99        3346.25           6844       15253.00     66627.96
   90.02        3346.50           6848        6776.00     29561.08
   90.05        3346.75           6852        2324.00     10129.26
   90.08        3347.00           6856         767.00      3339.07
   90.11        3347.25           6859         435.00      1891.57
   90.14        3347.50           6863         286.00      1241.98
   90.17        3347.75           6867         227.00       984.77
   90.20        3348.00           6871         202.00       875.79
   90.23        3348.25           6874         189.00       819.11
   90.26        3348.50           6878         189.00       819.11
   90.29        3348.75           6882         181.00       784.24
   90.32        3349.00           6886         173.00       749.36
   90.35        3349.25           6889         159.00       688.33
   90.38        3349.50           6893         158.00       683.97
   90.41        3349.75           6897         163.00       705.77
   90.45        3350.00           6901         161.00       697.05
   90.47        3350.25           6904         179.00       775.52
   90.50        3350.50           6908         159.00       688.33
   90.54        3350.75           6912         167.00       723.21
   90.56        3351.00           6916         157.00       679.61
HL scan finished at 01:32:30
end
