************************************************************
  HL Scan of (1) Internal mercury lamp
************************************************************
Integration time is 0.2294 seconds per sample
dh070918El Arenosillo 37.1 6.73 2.88pr1000
************************************************************
Dead Time -------------------------  3.2E-08 
Number of Cycles Used -------------  4 
Starting Wavelength (Angstroms) ---  3331 
Final Wavelength (Angstoms) -------  3351 
Wavelength Increment (Angstroms) --  .25 
Filter Wheel #1 Position ---------- (1) Ground quartz diffuser (ND=2.32)
Filter Wheel #2 Position ---------- 



************************************************************
HL scan start time = 01:23:09
Dark Count =  .6 


Time (GMT)  Wavelength (Ang)  Step Number  Raw Counts  Counts/Second

   84.59        3331.00           6616         164.00       712.31
   85.63        3331.25           6620         157.00       681.79
   85.66        3331.50           6623         136.00       590.25
   85.69        3331.75           6627         142.00       616.40
   85.71        3332.00           6631         150.00       651.28
   85.75        3332.25           6635         128.00       555.37
   85.78        3332.50           6638         181.00       786.42
   85.80        3332.75           6642         142.00       616.40
   85.84        3333.00           6646         141.00       612.04
   85.87        3333.25           6649         151.00       655.64
   85.90        3333.50           6653         138.00       598.97
   85.93        3333.75           6657         138.00       598.97
   85.95        3334.00           6661         140.00       607.68
   85.99        3334.25           6664         144.00       625.12
   86.02        3334.50           6668         155.00       673.07
   86.05        3334.75           6672         176.00       764.62
   86.08        3335.00           6676         210.00       912.84
   86.11        3335.25           6679         233.00      1013.11
   86.14        3335.50           6683         285.00      1239.81
   86.17        3335.75           6687         410.00      1784.76
   86.20        3336.00           6691        1222.00      5325.23
   86.24        3336.25           6694        3341.00     14568.26
   86.26        3336.50           6698        9208.00     40188.53
   86.29        3336.75           6702       17749.00     77561.06
   86.33        3337.00           6706       27091.00    118541.20
   86.35        3337.25           6709       33801.00    148042.30
   86.39        3337.50           6713       42959.00    188396.50
   86.41        3337.75           6717       52043.00    228528.20
   86.45        3338.00           6721       61527.00    270537.80
   86.48        3338.25           6724       68825.00    302941.80
   86.51        3338.50           6728       77734.00    342590.50
   86.54        3338.75           6732       87994.00    388377.60
   86.57        3339.00           6736       97270.00    429889.90
   86.60        3339.25           6739      103897.00    459615.40
   86.63        3339.50           6743      113481.00    502705.70
   86.66        3339.75           6747      123361.00    547252.50
   86.69        3340.00           6751      132417.00    588197.00
   86.72        3340.25           6754      139104.00    618500.30
   86.75        3340.50           6758      148947.00    663213.90
   86.78        3340.75           6762      156808.00    699017.00
   86.81        3341.00           6766      164077.00    732197.80
   86.84        3341.25           6769      167380.00    747298.60
   86.87        3341.50           6773      168989.00    754660.00
   86.90        3341.75           6777      168181.00    750962.90
   86.93        3342.00           6781      164106.00    732330.30
   86.96        3342.25           6784      158660.00    707464.00
   86.99        3342.50           6788      149365.00    665115.50
   87.02        3342.75           6792      139447.00    620056.30
   87.05        3343.00           6795      131459.00    583860.60
   87.08        3343.25           6799      122011.00    541158.10
   87.11        3343.50           6803      112515.00    498357.00
   87.14        3343.75           6807      102451.00    453124.50
   87.17        3344.00           6811       92889.00    410270.00
   87.20        3344.25           6814       86211.00    380410.90
   87.23        3344.50           6818       76873.00    338754.30
   87.27        3344.75           6822       68047.00    299484.10
   87.29        3345.00           6826       58682.00    257923.90
   87.33        3345.25           6829       51613.00    226626.20
   87.36        3345.50           6833       41674.00    182727.90
   87.38        3345.75           6837       31858.00    139494.00
   87.42        3346.00           6841       21938.00     95923.46
   87.45        3346.25           6844       14984.00     65452.56
   87.48        3346.50           6848        7340.00     32026.71
   87.51        3346.75           6852        2595.00     11313.60
   87.54        3347.00           6856         844.00      3676.98
   87.57        3347.25           6859         468.00      2037.62
   87.60        3347.50           6863         287.00      1248.52
   87.63        3347.75           6867         239.00      1039.27
   87.66        3348.00           6871         212.00       921.56
   87.69        3348.25           6874         176.00       764.62
   87.72        3348.50           6878         173.00       751.54
   87.74        3348.75           6882         161.00       699.23
   87.77        3349.00           6886         155.00       673.07
   87.81        3349.25           6889         162.00       703.59
   87.83        3349.50           6893         159.00       690.51
   87.86        3349.75           6897         161.00       699.23
   87.89        3350.00           6901         166.00       721.03
   87.92        3350.25           6904         164.00       712.31
   87.95        3350.50           6908         162.00       703.59
   87.98        3350.75           6912         164.00       712.31
   88.01        3351.00           6916         157.00       681.79
HL scan finished at 01:29:57
end
