************************************************************
  HL Scan of (1) Internal mercury lamp
************************************************************
Integration time is 0.2294 seconds per sample
dh140918El Arenosillo 37.1 6.73 3.13pr1000
************************************************************
Dead Time -------------------------  3.2E-08 
Number of Cycles Used -------------  4 
Starting Wavelength (Angstroms) ---  3331 
Final Wavelength (Angstoms) -------  3351 
Wavelength Increment (Angstroms) --  .25 
Filter Wheel #1 Position ---------- (1) Ground quartz diffuser (ND=2.32)
Filter Wheel #2 Position ---------- 



************************************************************
HL scan start time = 01:20:34
Dark Count =  .9 


Time (GMT)  Wavelength (Ang)  Step Number  Raw Counts  Counts/Second

   82.02        3331.00           6616         144.00       623.81
   83.05        3331.25           6620         140.00       606.38
   83.08        3331.50           6623         146.00       632.53
   83.11        3331.75           6627         157.00       680.49
   83.14        3332.00           6631         132.00       571.50
   83.18        3332.25           6635         138.00       597.66
   83.20        3332.50           6638         141.00       610.74
   83.23        3332.75           6642         138.00       597.66
   83.27        3333.00           6646         155.00       671.77
   83.29        3333.25           6649         142.00       615.10
   83.32        3333.50           6653         137.00       593.30
   83.35        3333.75           6657         139.00       602.02
   83.38        3334.00           6661         152.00       658.69
   83.42        3334.25           6664         153.00       663.05
   83.45        3334.50           6668         179.00       776.39
   83.47        3334.75           6672         190.00       824.35
   83.51        3335.00           6676         236.00      1024.88
   83.53        3335.25           6679         262.00      1138.23
   83.57        3335.50           6683         333.00      1447.76
   83.59        3335.75           6687         702.00      3056.53
   83.62        3336.00           6691        2914.00     12703.94
   83.66        3336.25           6694        6680.00     29142.69
   83.68        3336.50           6698       14992.00     65486.26
   83.71        3336.75           6702       24870.00    108787.40
   83.75        3337.00           6706       35154.00    153996.30
   83.77        3337.25           6709       43024.00    188682.00
   83.81        3337.50           6713       53269.00    233951.10
   83.83        3337.75           6717       63608.00    279769.50
   83.87        3338.00           6721       73243.00    322589.80
   83.90        3338.25           6724       81124.00    357702.80
   83.93        3338.50           6728       91064.00    402102.90
   83.96        3338.75           6732      101111.00    447110.50
   83.99        3339.00           6736      111497.00    493774.30
   84.02        3339.25           6739      118994.00    527545.50
   84.05        3339.50           6743      129962.00    577085.30
   84.08        3339.75           6747      140320.00    624015.80
   84.11        3340.00           6751      150617.00    670811.50
   84.14        3340.25           6754      158165.00    705204.50
   84.17        3340.50           6758      167325.00    747045.60
   84.20        3340.75           6762      175784.00    785785.60
   84.23        3341.00           6766      180813.00    808863.50
   84.25        3341.25           6769      182725.00    817646.50
   84.29        3341.50           6773      183102.00    819379.00
   84.32        3341.75           6777      180025.00    805245.00
   84.35        3342.00           6781      172501.00    770738.80
   84.38        3342.25           6784      165497.00    738686.60
   84.41        3342.50           6788      155241.00    691872.00
   84.44        3342.75           6792      145205.00    646198.50
   84.47        3343.00           6795      137104.00    609429.40
   84.49        3343.25           6799      126794.00    562759.90
   84.52        3343.50           6803      115825.00    513261.30
   84.55        3343.75           6807      105671.00    467581.10
   84.59        3344.00           6811       95484.00    421887.10
   84.61        3344.25           6814       88413.00    390249.00
   84.64        3344.50           6818       78337.00    345276.50
   84.68        3344.75           6822       67926.00    298945.10
   84.71        3345.00           6826       57488.00    252631.80
   84.74        3345.25           6829       49700.00    218166.00
   84.77        3345.50           6833       39423.00    172801.70
   84.80        3345.75           6837       28564.00    125011.30
   84.83        3346.00           6841       18146.00     79299.06
   84.86        3346.25           6844       11389.00     49722.03
   84.89        3346.50           6848        4907.00     21401.32
   84.92        3346.75           6852        1733.00      7552.39
   84.95        3347.00           6856         595.00      2590.01
   84.98        3347.25           6859         370.00      1609.06
   85.01        3347.50           6863         301.00      1308.25
   85.04        3347.75           6867         259.00      1125.15
   85.08        3348.00           6871         197.00       854.86
   85.10        3348.25           6874         182.00       789.47
   85.13        3348.50           6878         169.00       732.80
   85.16        3348.75           6882         182.00       789.47
   85.19        3349.00           6886         169.00       732.80
   85.23        3349.25           6889         157.00       680.49
   85.26        3349.50           6893         162.00       702.28
   85.28        3349.75           6897         147.00       636.89
   85.32        3350.00           6901         165.00       715.36
   85.35        3350.25           6904         159.00       689.20
   85.38        3350.50           6908         163.00       706.64
   85.41        3350.75           6912         167.00       724.08
   85.44        3351.00           6916         165.00       715.36
HL scan finished at 01:27:23
end
