************************************************************
  HL Scan of (1) Internal mercury lamp
************************************************************
Integration time is 0.2294 seconds per sample
dh210918El Arenosillo 37.1 6.73 3.21pr1000
************************************************************
Dead Time -------------------------  3.2E-08 
Number of Cycles Used -------------  4 
Starting Wavelength (Angstroms) ---  3331 
Final Wavelength (Angstoms) -------  3351 
Wavelength Increment (Angstroms) --  .25 
Filter Wheel #1 Position ---------- (1) Ground quartz diffuser (ND=2.32)
Filter Wheel #2 Position ---------- 



************************************************************
HL scan start time = 01:17:57
Dark Count =  .8 


Time (GMT)  Wavelength (Ang)  Step Number  Raw Counts  Counts/Second

   79.40        3331.00           6616         173.00       750.67
   80.43        3331.25           6620         139.00       602.45
   80.46        3331.50           6623         125.00       541.42
   80.49        3331.75           6627         139.00       602.45
   80.52        3332.00           6631         141.00       611.17
   80.55        3332.25           6635         150.00       650.41
   80.58        3332.50           6638         128.00       554.50
   80.61        3332.75           6642         142.00       615.53
   80.64        3333.00           6646         149.00       646.05
   80.67        3333.25           6649         153.00       663.48
   80.70        3333.50           6653         133.00       576.30
   80.73        3333.75           6657         148.00       641.69
   80.76        3334.00           6661         141.00       611.17
   80.80        3334.25           6664         148.00       641.69
   80.82        3334.50           6668         162.00       702.72
   80.85        3334.75           6672         190.00       824.78
   80.89        3335.00           6676         221.00       959.92
   80.91        3335.25           6679         252.00      1095.07
   80.95        3335.50           6683         309.00      1343.56
   80.97        3335.75           6687         634.00      2760.49
   81.00        3336.00           6691        2626.00     11447.96
   81.04        3336.25           6694        6131.00     26745.64
   81.06        3336.50           6698       13764.00     60112.04
   81.09        3336.75           6702       23185.00    101393.00
   81.12        3337.00           6706       33254.00    145634.40
   81.15        3337.25           6709       40422.00    177206.10
   81.18        3337.50           6713       50482.00    221623.70
   81.21        3337.75           6717       60516.00    266053.20
   81.24        3338.00           6721       69348.00    305265.70
   81.27        3338.25           6724       76266.00    336049.50
   81.30        3338.50           6728       85529.00    377363.90
   81.33        3338.75           6732       94781.00    418739.20
   81.36        3339.00           6736      104687.00    463161.90
   81.39        3339.25           6739      112357.00    497645.00
   81.43        3339.50           6743      122454.00    543156.80
   81.45        3339.75           6747      132364.00    587956.10
   81.49        3340.00           6751      142224.00    632658.60
   81.52        3340.25           6754      150073.00    668336.20
   81.54        3340.50           6758      159567.00    711601.70
   81.58        3340.75           6762      168077.00    750486.10
   81.61        3341.00           6766      174822.00    781375.50
   81.63        3341.25           6769      176908.00    790941.10
   81.67        3341.50           6773      178085.00    796341.00
   81.69        3341.75           6777      175322.00    783667.80
   81.73        3342.00           6781      169135.00    755327.30
   81.76        3342.25           6784      163227.00    728313.10
   81.78        3342.50           6788      153938.00    685935.00
   81.82        3342.75           6792      144320.00    642177.90
   81.84        3343.00           6795      136587.00    607086.30
   81.88        3343.25           6799      126793.00    562755.80
   81.91        3343.50           6803      116979.00    518461.90
   81.93        3343.75           6807      107566.00    476096.50
   81.97        3344.00           6811       98079.00    433514.70
   82.00        3344.25           6814       90940.00    401548.70
   82.03        3344.50           6818       81444.00    359130.60
   82.06        3344.75           6822       71332.00    314087.90
   82.09        3345.00           6826       60584.00    266354.80
   82.12        3345.25           6829       52485.00    230482.70
   82.14        3345.50           6833       42397.00    185916.20
   82.17        3345.75           6837       32366.00    141727.60
   82.21        3346.00           6841       21863.00     95593.63
   82.23        3346.25           6844       14935.00     65237.18
   82.26        3346.50           6848        6977.00     30440.28
   82.30        3346.75           6852        2380.00     10374.85
   82.32        3347.00           6856         731.00      3183.41
   82.35        3347.25           6859         416.00      1810.04
   82.38        3347.50           6863         271.00      1177.90
   82.40        3347.75           6867         229.00       994.80
   82.44        3348.00           6871         204.00       885.81
   82.47        3348.25           6874         191.00       829.14
   82.49        3348.50           6878         173.00       750.67
   82.53        3348.75           6882         174.00       755.03
   82.56        3349.00           6886         166.00       720.16
   82.59        3349.25           6889         163.00       707.08
   82.62        3349.50           6893         174.00       755.03
   82.64        3349.75           6897         156.00       676.56
   82.68        3350.00           6901         157.00       680.92
   82.71        3350.25           6904         166.00       720.16
   82.73        3350.50           6908         160.00       694.00
   82.77        3350.75           6912         180.00       781.19
   82.80        3351.00           6916         163.00       707.08
HL scan finished at 01:24:44
end
