************************************************************
  HL Scan of (1) Internal mercury lamp
************************************************************
Integration time is 0.2294 seconds per sample
dh051018El Arenosillo 37.1 6.73 2.94pr1000
************************************************************
Dead Time -------------------------  3.2E-08 
Number of Cycles Used -------------  4 
Starting Wavelength (Angstroms) ---  3331 
Final Wavelength (Angstoms) -------  3351 
Wavelength Increment (Angstroms) --  .25 
Filter Wheel #1 Position ---------- (1) Ground quartz diffuser (ND=2.32)
Filter Wheel #2 Position ---------- 



************************************************************
HL scan start time = 01:11:23
Dark Count =  .6 


Time (GMT)  Wavelength (Ang)  Step Number  Raw Counts  Counts/Second

   72.82        3331.00           6616         137.00       594.61
   73.86        3331.25           6620         136.00       590.25
   73.89        3331.50           6623         127.00       551.01
   73.92        3331.75           6627         132.00       572.81
   73.94        3332.00           6631         156.00       677.43
   73.98        3332.25           6635         149.00       646.92
   74.00        3332.50           6638         169.00       734.11
   74.03        3332.75           6642         146.00       633.84
   74.06        3333.00           6646         135.00       585.89
   74.09        3333.25           6649         162.00       703.59
   74.12        3333.50           6653         160.00       694.87
   74.14        3333.75           6657         135.00       585.89
   74.17        3334.00           6661         158.00       686.15
   74.21        3334.25           6664         162.00       703.59
   74.23        3334.50           6668         140.00       607.68
   74.26        3334.75           6672         168.00       729.75
   74.29        3335.00           6676         205.00       891.05
   74.33        3335.25           6679         223.00       969.52
   74.35        3335.50           6683         261.00      1135.18
   74.38        3335.75           6687         468.00      2037.62
   74.41        3336.00           6691        1853.00      8077.07
   74.44        3336.25           6694        4898.00     21363.34
   74.47        3336.50           6698       11637.00     50807.92
   74.50        3336.75           6702       20069.00     87728.06
   74.53        3337.00           6706       28063.00    122811.30
   74.56        3337.25           6709       34134.00    149507.80
   74.59        3337.50           6713       42934.00    188286.20
   74.61        3337.75           6717       51307.00    225272.90
   74.65        3338.00           6721       59774.00    262764.30
   74.68        3338.25           6724       66217.00    291354.20
   74.71        3338.50           6728       75107.00    330888.80
   74.73        3338.75           6732       84017.00    370613.50
   74.77        3339.00           6736       92974.00    410650.50
   74.80        3339.25           6739       99599.00    440330.20
   74.83        3339.50           6743      107767.00    477000.70
   74.85        3339.75           6747      116676.00    517097.20
   74.89        3340.00           6751      125213.00    555617.10
   74.91        3340.25           6754      131908.00    585892.80
   74.94        3340.50           6758      139606.00    620777.60
   74.97        3340.75           6762      146901.00    653908.90
   75.00        3341.00           6766      152705.00    680319.40
   75.03        3341.25           6769      154910.00    690364.90
   75.06        3341.50           6773      155417.00    692675.60
   75.09        3341.75           6777      153037.00    681831.50
   75.12        3342.00           6781      148696.00    662072.10
   75.15        3342.25           6784      142606.00    634394.00
   75.18        3342.50           6788      134282.00    596642.60
   75.21        3342.75           6792      125780.00    558178.80
   75.24        3343.00           6795      118911.00    527172.50
   75.27        3343.25           6799      109794.00    486114.50
   75.29        3343.50           6803      100969.00    446474.80
   75.33        3343.75           6807       92352.00    407866.90
   75.36        3344.00           6811       83809.00    369685.00
   75.39        3344.25           6814       77188.00    340157.70
   75.41        3344.50           6818       68358.00    300866.20
   75.45        3344.75           6822       60583.00    266351.20
   75.48        3345.00           6826       51878.00    227798.40
   75.50        3345.25           6829       45338.00    198896.60
   75.53        3345.50           6833       37185.00    162941.60
   75.57        3345.75           6837       28478.00    124634.70
   75.60        3346.00           6841       19594.00     85645.92
   75.62        3346.25           6844       13404.00     58537.63
   75.65        3346.50           6848        6513.00     28414.67
   75.69        3346.75           6852        2341.00     10205.60
   75.71        3347.00           6856         731.00      3184.28
   75.74        3347.25           6859         388.00      1688.84
   75.77        3347.50           6863         245.00      1065.42
   75.80        3347.75           6867         215.00       934.64
   75.83        3348.00           6871         169.00       734.11
   75.86        3348.25           6874         165.00       716.67
   75.88        3348.50           6878         166.00       721.03
   75.92        3348.75           6882         156.00       677.43
   75.95        3349.00           6886         148.00       642.56
   75.97        3349.25           6889         140.00       607.68
   76.01        3349.50           6893         146.00       633.84
   76.04        3349.75           6897         149.00       646.92
   76.06        3350.00           6901         145.00       629.48
   76.09        3350.25           6904         160.00       694.87
   76.12        3350.50           6908         146.00       633.84
   76.15        3350.75           6912         143.00       620.76
   76.18        3351.00           6916         160.00       694.87
HL scan finished at 01:18:07
end
