************************************************************
  HL Scan of (1) Internal mercury lamp
************************************************************
Integration time is 0.2294 seconds per sample
dh121018El Arenosillo 37.1 6.73 3.13pr1000
************************************************************
Dead Time -------------------------  3.2E-08 
Number of Cycles Used -------------  4 
Starting Wavelength (Angstroms) ---  3331 
Final Wavelength (Angstoms) -------  3351 
Wavelength Increment (Angstroms) --  .25 
Filter Wheel #1 Position ---------- (1) Ground quartz diffuser (ND=2.32)
Filter Wheel #2 Position ---------- 



************************************************************
HL scan start time = 01:09:51
Dark Count =  1.1 


Time (GMT)  Wavelength (Ang)  Step Number  Raw Counts  Counts/Second

   71.30        3331.00           6616         154.00       666.54
   72.34        3331.25           6620         131.00       566.27
   72.37        3331.50           6623         142.00       614.22
   72.39        3331.75           6627         152.00       657.82
   72.43        3332.00           6631         138.00       596.79
   72.46        3332.25           6635         130.00       561.91
   72.48        3332.50           6638         155.00       670.89
   72.51        3332.75           6642         146.00       631.66
   72.55        3333.00           6646         132.00       570.63
   72.57        3333.25           6649         139.00       601.14
   72.60        3333.50           6653         163.00       705.77
   72.63        3333.75           6657         117.00       505.24
   72.66        3334.00           6661         135.00       583.71
   72.69        3334.25           6664         141.00       609.86
   72.72        3334.50           6668         161.00       697.05
   72.75        3334.75           6672         188.00       814.76
   72.78        3335.00           6676         207.00       897.58
   72.81        3335.25           6679         241.00      1045.81
   72.83        3335.50           6683         270.00      1172.23
   72.87        3335.75           6687         516.00      2244.71
   72.89        3336.00           6691        2003.00      8729.12
   72.92        3336.25           6694        5118.00     22321.52
   72.95        3336.50           6698       11830.00     51649.82
   72.98        3336.75           6702       20505.00     89637.31
   73.00        3337.00           6706       29116.00    127436.20
   73.03        3337.25           6709       35764.00    156681.20
   73.06        3337.50           6713       44428.00    194877.10
   73.09        3337.75           6717       52888.00    232264.40
   73.12        3338.00           6721       61818.00    271826.30
   73.15        3338.25           6724       68670.00    302250.60
   73.18        3338.50           6728       76994.00    339291.20
   73.21        3338.75           6732       86015.00    379533.20
   73.24        3339.00           6736       95553.00    422195.30
   73.28        3339.25           6739      102333.00    452592.70
   73.30        3339.50           6743      111502.00    493795.90
   73.33        3339.75           6747      120621.00    534883.30
   73.36        3340.00           6751      129440.00    574723.00
   73.39        3340.25           6754      136099.00    604873.10
   73.42        3340.50           6758      144893.00    644780.00
   73.45        3340.75           6762      153018.00    681742.70
   73.48        3341.00           6766      158124.00    705016.50
   73.51        3341.25           6769      160711.00    716821.80
   73.53        3341.50           6773      160871.00    717552.30
   73.56        3341.75           6777      159106.00    709496.70
   73.60        3342.00           6781      153520.00    684029.30
   73.62        3342.25           6784      148240.00    659995.60
   73.65        3342.50           6788      139992.00    622526.60
   73.68        3342.75           6792      131050.00    582007.30
   73.71        3343.00           6795      123995.00    550113.10
   73.74        3343.25           6799      115072.00    509868.20
   73.77        3343.50           6803      105729.00    467840.70
   73.80        3343.75           6807       95952.00    423982.50
   73.83        3344.00           6811       86791.00    382999.70
   73.86        3344.25           6814       79849.00    352015.90
   73.89        3344.50           6818       70937.00    312329.70
   73.92        3344.75           6822       62169.00    273383.40
   73.95        3345.00           6826       53015.00    232826.30
   73.98        3345.25           6829       46151.00    202484.30
   74.01        3345.50           6833       37345.00    163644.20
   74.04        3345.75           6837       27722.00    121310.90
   74.07        3346.00           6841       18275.00     79863.40
   74.10        3346.25           6844       12002.00     52402.10
   74.13        3346.50           6848        5235.00     22832.28
   74.16        3346.75           6852        1652.00      7198.26
   74.18        3347.00           6856         546.00      2375.51
   74.22        3347.25           6859         363.00      1577.67
   74.25        3347.50           6863         243.00      1054.53
   74.28        3347.75           6867         211.00       915.02
   74.30        3348.00           6871         188.00       814.76
   74.34        3348.25           6874         167.00       723.21
   74.37        3348.50           6878         168.00       727.57
   74.39        3348.75           6882         168.00       727.57
   74.42        3349.00           6886         146.00       631.66
   74.46        3349.25           6889         144.00       622.94
   74.48        3349.50           6893         160.00       692.69
   74.51        3349.75           6897         146.00       631.66
   74.54        3350.00           6901         158.00       683.97
   74.57        3350.25           6904         141.00       609.86
   74.60        3350.50           6908         162.00       701.41
   74.62        3350.75           6912         151.00       653.46
   74.66        3351.00           6916         183.00       792.96
HL scan finished at 01:16:36
end
