************************************************************
  HL Scan of (1) Internal mercury lamp
************************************************************
Integration time is 0.2294 seconds per sample
dh191018El Arenosillo 37.1 6.73 2.62pr1000
************************************************************
Dead Time -------------------------  3.2E-08 
Number of Cycles Used -------------  4 
Starting Wavelength (Angstroms) ---  3331 
Final Wavelength (Angstoms) -------  3351 
Wavelength Increment (Angstroms) --  .25 
Filter Wheel #1 Position ---------- (1) Ground quartz diffuser (ND=2.32)
Filter Wheel #2 Position ---------- 



************************************************************
HL scan start time = 01:08:34
Dark Count =  .1 


Time (GMT)  Wavelength (Ang)  Step Number  Raw Counts  Counts/Second

   70.00        3331.00           6616         123.00       535.75
   71.04        3331.25           6620         144.00       627.30
   71.07        3331.50           6623         147.00       640.38
   71.10        3331.75           6627         166.00       723.21
   71.13        3332.00           6631         125.00       544.47
   71.16        3332.25           6635         140.00       609.86
   71.19        3332.50           6638         123.00       535.75
   71.22        3332.75           6642         129.00       561.91
   71.24        3333.00           6646         132.00       574.99
   71.28        3333.25           6649         133.00       579.35
   71.31        3333.50           6653         144.00       627.30
   71.34        3333.75           6657         147.00       640.38
   71.36        3334.00           6661         143.00       622.94
   71.40        3334.25           6664         137.00       596.79
   71.43        3334.50           6668         150.00       653.46
   71.45        3334.75           6672         184.00       801.68
   71.48        3335.00           6676         198.00       862.71
   71.52        3335.25           6679         225.00       980.41
   71.54        3335.50           6683         279.00      1215.83
   71.57        3335.75           6687         437.00      1904.65
   71.60        3336.00           6691        1573.00      6858.09
   71.64        3336.25           6694        4163.00     18157.45
   71.66        3336.50           6698        9809.00     42817.57
   71.69        3336.75           6702       16724.00     73073.46
   71.72        3337.00           6706       24203.00    105863.30
   71.75        3337.25           6709       29932.00    131027.30
   71.78        3337.50           6713       37460.00    164155.20
   71.81        3337.75           6717       44838.00    196691.40
   71.84        3338.00           6721       52622.00    231091.90
   71.87        3338.25           6724       58922.00    258989.80
   71.90        3338.50           6728       66560.00    292879.90
   71.93        3338.75           6732       74480.00    328099.40
   71.96        3339.00           6736       82823.00    365286.50
   71.99        3339.25           6739       88266.00    389595.50
   72.02        3339.50           6743       95815.00    423373.30
   72.05        3339.75           6747      104409.00    461916.60
   72.08        3340.00           6751      111674.00    494574.30
   72.11        3340.25           6754      117589.00    521214.50
   72.14        3340.50           6758      125278.00    555913.00
   72.17        3340.75           6762      132206.00    587244.10
   72.19        3341.00           6766      137173.00    609745.90
   72.23        3341.25           6769      138987.00    617971.90
   72.26        3341.50           6773      140113.00    623080.10
   72.29        3341.75           6777      138523.00    615867.30
   72.31        3342.00           6781      134407.00    597211.10
   72.35        3342.25           6784      128568.00    570783.70
   72.37        3342.50           6788      120327.00    533561.40
   72.40        3342.75           6792      112302.00    497400.60
   72.43        3343.00           6795      106115.00    469579.30
   72.46        3343.25           6799       98341.00    434692.20
   72.49        3343.50           6803       90721.00    400572.30
   72.52        3343.75           6807       82825.00    365295.40
   72.55        3344.00           6811       75432.00    332338.20
   72.58        3344.25           6814       69203.00    304624.20
   72.61        3344.50           6818       61403.00    269990.00
   72.64        3344.75           6822       53384.00    234463.60
   72.67        3345.00           6826       45026.00    197521.40
   72.70        3345.25           6829       39458.00    172959.40
   72.73        3345.50           6833       31206.00    136628.80
   72.76        3345.75           6837       23582.00    103138.00
   72.79        3346.00           6841       16019.00     69986.13
   72.82        3346.25           6844       10473.00     45720.29
   72.85        3346.50           6848        4773.00     20819.88
   72.88        3346.75           6852        1435.00      6256.27
   72.91        3347.00           6856         484.00      2109.56
   72.94        3347.25           6859         282.00      1228.91
   72.97        3347.50           6863         236.00      1028.37
   73.00        3347.75           6867         186.00       810.40
   73.03        3348.00           6871         174.00       758.08
   73.06        3348.25           6874         159.00       692.69
   73.09        3348.50           6878         163.00       710.13
   73.12        3348.75           6882         155.00       675.25
   73.15        3349.00           6886         150.00       653.46
   73.18        3349.25           6889         166.00       723.21
   73.21        3349.50           6893         156.00       679.61
   73.24        3349.75           6897         145.00       631.66
   73.27        3350.00           6901         171.00       745.00
   73.30        3350.25           6904         144.00       627.30
   73.33        3350.50           6908         165.00       718.85
   73.36        3350.75           6912         154.00       670.89
   73.39        3351.00           6916         141.00       614.22
HL scan finished at 01:15:20
end
