************************************************************
  HL Scan of (1) Internal mercury lamp
************************************************************
Integration time is 0.2294 seconds per sample
dh261018El Arenosillo 37.1 6.73 2.88pr1000
************************************************************
Dead Time -------------------------  3.2E-08 
Number of Cycles Used -------------  4 
Starting Wavelength (Angstroms) ---  3331 
Final Wavelength (Angstoms) -------  3351 
Wavelength Increment (Angstroms) --  .25 
Filter Wheel #1 Position ---------- (1) Ground quartz diffuser (ND=2.32)
Filter Wheel #2 Position ---------- 



************************************************************
HL scan start time = 01:07:13
Dark Count =  .6 


Time (GMT)  Wavelength (Ang)  Step Number  Raw Counts  Counts/Second

   68.66        3331.00           6616         139.00       603.32
   69.70        3331.25           6620         148.00       642.56
   69.73        3331.50           6623         144.00       625.12
   69.76        3331.75           6627         147.00       638.20
   69.79        3332.00           6631         142.00       616.40
   69.82        3332.25           6635         172.00       747.18
   69.85        3332.50           6638         131.00       568.45
   69.88        3332.75           6642         132.00       572.81
   69.91        3333.00           6646         162.00       703.59
   69.94        3333.25           6649         131.00       568.45
   69.96        3333.50           6653         125.00       542.29
   69.99        3333.75           6657         145.00       629.48
   70.03        3334.00           6661         142.00       616.40
   70.06        3334.25           6664         142.00       616.40
   70.08        3334.50           6668         165.00       716.67
   70.11        3334.75           6672         175.00       760.26
   70.15        3335.00           6676         206.00       895.40
   70.17        3335.25           6679         228.00       991.31
   70.20        3335.50           6683         309.00      1344.43
   70.24        3335.75           6687         735.00      3201.72
   70.26        3336.00           6691        2887.00     12587.46
   70.29        3336.25           6694        6458.00     28174.47
   70.32        3336.50           6698       13446.00     58721.41
   70.35        3336.75           6702       21015.00     91875.65
   70.37        3337.00           6706       29093.00    127337.40
   70.40        3337.25           6709       35357.00    154891.40
   70.44        3337.50           6713       43212.00    189512.90
   70.46        3337.75           6717       51259.00    225060.60
   70.49        3338.00           6721       59762.00    262711.10
   70.52        3338.25           6724       65645.00    288813.90
   70.56        3338.50           6728       74097.00    326392.10
   70.58        3338.75           6732       82148.00    362272.30
   70.61        3339.00           6736       90443.00    399326.60
   70.65        3339.25           6739       96903.00    428245.40
   70.67        3339.50           6743      105234.00    465619.50
   70.70        3339.75           6747      113362.00    502169.90
   70.73        3340.00           6751      121331.00    538089.30
   70.77        3340.25           6754      127293.00    565016.80
   70.79        3340.50           6758      135489.00    602111.00
   70.82        3340.75           6762      141902.00    631197.60
   70.85        3341.00           6766      145966.00    649658.50
   70.88        3341.25           6769      147690.00    657496.50
   70.91        3341.50           6773      146925.00    654018.00
   70.94        3341.75           6777      145232.00    646322.60
   70.97        3342.00           6781      138570.00    616078.30
   71.00        3342.25           6784      133476.00    592992.10
   71.03        3342.50           6788      124290.00    551447.80
   71.06        3342.75           6792      116093.00    514470.20
   71.09        3343.00           6795      109368.00    484198.70
   71.12        3343.25           6799      101018.00    446694.60
   71.15        3343.50           6803       92386.00    408019.00
   71.18        3343.75           6807       84209.00    371470.70
   71.21        3344.00           6811       75934.00    334571.60
   71.24        3344.25           6814       70307.00    309530.30
   71.27        3344.50           6818       62294.00    273940.10
   71.30        3344.75           6822       53643.00    235607.50
   71.33        3345.00           6826       45671.00    200366.90
   71.36        3345.25           6829       38815.00    170123.30
   71.39        3345.50           6833       30545.00    133720.10
   71.42        3345.75           6837       21998.00     96186.63
   71.45        3346.00           6841       13959.00     60966.25
   71.48        3346.25           6844        8681.00     37885.49
   71.51        3346.50           6848        3368.00     14686.06
   71.54        3346.75           6852        1173.00      5111.56
   71.57        3347.00           6856         432.00      1880.67
   71.60        3347.25           6859         273.00      1187.49
   71.63        3347.50           6863         222.00       965.16
   71.66        3347.75           6867         186.00       808.22
   71.68        3348.00           6871         169.00       734.11
   71.72        3348.25           6874         159.00       690.51
   71.75        3348.50           6878         162.00       703.59
   71.78        3348.75           6882         141.00       612.04
   71.80        3349.00           6886         143.00       620.76
   71.84        3349.25           6889         161.00       699.23
   71.87        3349.50           6893         147.00       638.20
   71.89        3349.75           6897         150.00       651.28
   71.93        3350.00           6901         142.00       616.40
   71.96        3350.25           6904         138.00       598.97
   71.98        3350.50           6908         163.00       707.95
   72.01        3350.75           6912         151.00       655.64
   72.05        3351.00           6916         155.00       673.07
HL scan finished at 01:13:59
end
