************************************************************
  HL Scan of (1) Internal mercury lamp
************************************************************
Integration time is 0.2294 seconds per sample
dh021118El Arenosillo 37.1 6.73 2.54pr1000
************************************************************
Dead Time -------------------------  3.2E-08 
Number of Cycles Used -------------  4 
Starting Wavelength (Angstroms) ---  3331 
Final Wavelength (Angstoms) -------  3351 
Wavelength Increment (Angstroms) --  .25 
Filter Wheel #1 Position ---------- (1) Ground quartz diffuser (ND=2.32)
Filter Wheel #2 Position ---------- 



************************************************************
HL scan start time = 01:06:43
Dark Count =  .2 


Time (GMT)  Wavelength (Ang)  Step Number  Raw Counts  Counts/Second

   68.17        3331.00           6616         124.00       539.68
   69.21        3331.25           6620         142.00       618.15
   69.23        3331.50           6623         117.00       509.16
   69.26        3331.75           6627         138.00       600.71
   69.29        3332.00           6631         149.00       648.66
   69.32        3332.25           6635         143.00       622.51
   69.35        3332.50           6638         159.00       692.26
   69.38        3332.75           6642         128.00       557.12
   69.42        3333.00           6646         142.00       618.15
   69.44        3333.25           6649         119.00       517.88
   69.47        3333.50           6653         135.00       587.63
   69.50        3333.75           6657         124.00       539.68
   69.53        3334.00           6661         136.00       591.99
   69.56        3334.25           6664         149.00       648.66
   69.59        3334.50           6668         155.00       674.82
   69.62        3334.75           6672         177.00       770.73
   69.65        3335.00           6676         182.00       792.52
   69.68        3335.25           6679         200.00       870.99
   69.70        3335.50           6683         228.00       993.06
   69.74        3335.75           6687         317.00      1381.05
   69.77        3336.00           6691        1019.00      4441.78
   69.79        3336.25           6694        2950.00     12864.06
   69.83        3336.50           6698        8215.00     35851.04
   69.86        3336.75           6702       15008.00     65559.37
   69.88        3337.00           6706       21931.00     95894.52
   69.91        3337.25           6709       27412.00    119953.00
   69.94        3337.50           6713       34348.00    150451.50
   69.97        3337.75           6717       41131.00    180335.00
   70.00        3338.00           6721       48252.00    211769.40
   70.03        3338.25           6724       53925.00    236857.40
   70.06        3338.50           6728       61267.00    269386.40
   70.09        3338.75           6732       68786.00    302770.20
   70.12        3339.00           6736       76409.00    336689.10
   70.16        3339.25           6739       81491.00    359343.00
   70.18        3339.50           6743       89297.00    394203.90
   70.21        3339.75           6747       97152.00    429362.90
   70.24        3340.00           6751      104234.00    461130.40
   70.27        3340.25           6754      109464.00    484632.20
   70.30        3340.50           6758      116840.00    517838.10
   70.33        3340.75           6762      123040.00    545805.00
   70.36        3341.00           6766      128417.00    570100.50
   70.39        3341.25           6769      131015.00    581852.90
   70.42        3341.50           6773      131929.00    585989.60
   70.45        3341.75           6777      131174.00    582572.50
   70.49        3342.00           6781      127120.00    564236.60
   70.51        3342.25           6784      122562.00    543647.00
   70.54        3342.50           6788      116005.00    514075.50
   70.57        3342.75           6792      108893.00    482064.60
   70.60        3343.00           6795      103313.00    456995.40
   70.63        3343.25           6799       95617.00    422486.00
   70.66        3343.50           6803       88059.00    388669.80
   70.69        3343.75           6807       80268.00    353888.20
   70.72        3344.00           6811       72889.00    321017.50
   70.75        3344.25           6814       67316.00    296237.80
   70.78        3344.50           6818       59819.00    262965.50
   70.81        3344.75           6822       52612.00    231047.20
   70.84        3345.00           6826       45335.00    198885.10
   70.87        3345.25           6829       40009.00    175387.90
   70.90        3345.50           6833       32441.00    142060.20
   70.92        3345.75           6837       25024.00    109466.50
   70.95        3346.00           6841       17318.00     75674.75
   70.98        3346.25           6844       11557.00     50459.79
   71.01        3346.50           6848        5552.00     24220.16
   71.04        3346.75           6852        1888.00      8231.46
   71.07        3347.00           6856         587.00      2558.19
   71.10        3347.25           6859         327.00      1424.65
   71.13        3347.50           6863         228.00       993.06
   71.16        3347.75           6867         187.00       814.32
   71.19        3348.00           6871         174.00       757.65
   71.22        3348.25           6874         166.00       722.77
   71.25        3348.50           6878         159.00       692.26
   71.28        3348.75           6882         168.00       731.49
   71.31        3349.00           6886         147.00       639.94
   71.34        3349.25           6889         149.00       648.66
   71.37        3349.50           6893         153.00       666.10
   71.40        3349.75           6897         143.00       622.51
   71.44        3350.00           6901         155.00       674.82
   71.46        3350.25           6904         142.00       618.15
   71.49        3350.50           6908         149.00       648.66
   71.52        3350.75           6912         155.00       674.82
   71.55        3351.00           6916         151.00       657.38
HL scan finished at 01:13:29
end
