************************************************************
  HL Scan of (1) Internal mercury lamp
************************************************************
Integration time is 0.2294 seconds per sample
dh231118El Arenosillo 37.1 6.73 2.54pr1000
************************************************************
Dead Time -------------------------  3.2E-08 
Number of Cycles Used -------------  4 
Starting Wavelength (Angstroms) ---  3331 
Final Wavelength (Angstoms) -------  3351 
Wavelength Increment (Angstroms) --  .25 
Filter Wheel #1 Position ---------- (1) Ground quartz diffuser (ND=2.32)
Filter Wheel #2 Position ---------- 



************************************************************
HL scan start time = 01:07:23
Dark Count =  .3 


Time (GMT)  Wavelength (Ang)  Step Number  Raw Counts  Counts/Second

   68.83        3331.00           6616         139.00       604.63
   69.87        3331.25           6620         144.00       626.43
   69.89        3331.50           6623         127.00       552.32
   69.92        3331.75           6627         141.00       613.35
   69.95        3332.00           6631         153.00       665.66
   69.98        3332.25           6635         140.00       608.99
   70.01        3332.50           6638         148.00       643.87
   70.04        3332.75           6642         140.00       608.99
   70.07        3333.00           6646         121.00       526.16
   70.10        3333.25           6649         177.00       770.29
   70.13        3333.50           6653         118.00       513.09
   70.16        3333.75           6657         134.00       582.84
   70.18        3334.00           6661         147.00       639.51
   70.22        3334.25           6664         131.00       569.76
   70.25        3334.50           6668         141.00       613.35
   70.28        3334.75           6672         160.00       696.18
   70.30        3335.00           6676         182.00       792.09
   70.34        3335.25           6679         196.00       853.12
   70.37        3335.50           6683         194.00       844.40
   70.39        3335.75           6687         283.00      1232.39
   70.42        3336.00           6691         674.00      2937.07
   70.46        3336.25           6694        2011.00      8767.50
   70.48        3336.50           6698        6385.00     27856.99
   70.51        3336.75           6702       12783.00     55821.95
   70.54        3337.00           6706       19504.00     85252.74
   70.57        3337.25           6709       24525.00    107275.70
   70.60        3337.50           6713       31906.00    139706.40
   70.63        3337.75           6717       38972.00    170816.50
   70.66        3338.00           6721       45832.00    201079.20
   70.69        3338.25           6724       51651.00    226795.60
   70.72        3338.50           6728       58950.00    259113.00
   70.75        3338.75           6732       66561.00    292883.50
   70.78        3339.00           6736       74017.00    326037.40
   70.81        3339.25           6739       79585.00    350842.30
   70.84        3339.50           6743       86746.00    382802.30
   70.87        3339.75           6747       93831.00    414487.90
   70.90        3340.00           6751      101070.00    446929.30
   70.93        3340.25           6754      106512.00    471362.10
   70.96        3340.50           6758      113566.00    503089.70
   70.99        3340.75           6762      120046.00    532293.00
   71.01        3341.00           6766      126127.00    559748.20
   71.05        3341.25           6769      128600.00    570927.50
   71.08        3341.50           6773      130410.00    579114.90
   71.11        3341.75           6777      129672.00    575776.10
   71.13        3342.00           6781      127028.00    563820.30
   71.17        3342.25           6784      123042.00    545813.60
   71.19        3342.50           6788      116076.00    514395.00
   71.22        3342.75           6792      108916.00    482167.60
   71.25        3343.00           6795      103333.00    457084.70
   71.28        3343.25           6799       95669.00    422718.50
   71.31        3343.50           6803       88005.00    388428.10
   71.34        3343.75           6807       80588.00    355314.80
   71.37        3344.00           6811       73550.00    323958.80
   71.40        3344.25           6814       68318.00    300689.80
   71.43        3344.50           6818       60853.00    267549.90
   71.46        3344.75           6822       54180.00    237985.60
   71.49        3345.00           6826       46768.00    205212.90
   71.52        3345.25           6829       41389.00    181472.30
   71.55        3345.50           6833       33945.00    148677.40
   71.58        3345.75           6837       26697.00    116812.00
   71.61        3346.00           6841       19283.00     84284.11
   71.64        3346.25           6844       14044.00     61339.56
   71.67        3346.50           6848        7615.00     33229.30
   71.70        3346.75           6852        3069.00     13382.80
   71.72        3347.00           6856         884.00      3852.70
   71.76        3347.25           6859         425.00      1851.46
   71.79        3347.50           6863         259.00      1127.77
   71.82        3347.75           6867         201.00       874.92
   71.84        3348.00           6871         174.00       757.21
   71.88        3348.25           6874         175.00       761.57
   71.90        3348.50           6878         155.00       674.38
   71.93        3348.75           6882         153.00       665.66
   71.96        3349.00           6886         155.00       674.38
   71.99        3349.25           6889         125.00       543.60
   72.02        3349.50           6893         160.00       696.18
   72.05        3349.75           6897         167.00       726.70
   72.08        3350.00           6901         141.00       613.35
   72.11        3350.25           6904         139.00       604.63
   72.14        3350.50           6908         151.00       656.94
   72.17        3350.75           6912         137.00       595.91
   72.20        3351.00           6916         143.00       622.07
HL scan finished at 01:14:08
end
