************************************************************
  HL Scan of (1) Internal mercury lamp
************************************************************
Integration time is 0.2294 seconds per sample
dh161118El Arenosillo 37.1 6.73 2.6pr1000
************************************************************
Dead Time -------------------------  3.2E-08 
Number of Cycles Used -------------  4 
Starting Wavelength (Angstroms) ---  3331 
Final Wavelength (Angstoms) -------  3351 
Wavelength Increment (Angstroms) --  .25 
Filter Wheel #1 Position ---------- (1) Ground quartz diffuser (ND=2.32)
Filter Wheel #2 Position ---------- 



************************************************************
HL scan start time = 01:05:18
Dark Count =  .2 


Time (GMT)  Wavelength (Ang)  Step Number  Raw Counts  Counts/Second

   66.73        3331.00           6616         135.00       587.63
   67.77        3331.25           6620         133.00       578.91
   67.80        3331.50           6623         155.00       674.82
   67.83        3331.75           6627         120.00       522.24
   67.85        3332.00           6631         156.00       679.18
   67.89        3332.25           6635         156.00       679.18
   67.91        3332.50           6638         138.00       600.71
   67.94        3332.75           6642         173.00       753.29
   67.97        3333.00           6646         126.00       548.40
   68.01        3333.25           6649         120.00       522.24
   68.03        3333.50           6653         131.00       570.19
   68.06        3333.75           6657         155.00       674.82
   68.09        3334.00           6661         151.00       657.38
   68.12        3334.25           6664         150.00       653.02
   68.15        3334.50           6668         156.00       679.18
   68.17        3334.75           6672         167.00       727.13
   68.20        3335.00           6676         201.00       875.35
   68.23        3335.25           6679         190.00       827.40
   68.26        3335.50           6683         241.00      1049.73
   68.29        3335.75           6687         338.00      1472.61
   68.31        3336.00           6691        1185.00      5165.63
   68.35        3336.25           6694        3306.00     14417.29
   68.38        3336.50           6698        8751.00     38193.12
   68.40        3336.75           6702       15535.00     67866.50
   68.43        3337.00           6706       22746.00     99469.57
   68.47        3337.25           6709       28053.00    122769.10
   68.49        3337.50           6713       35252.00    154430.90
   68.52        3337.75           6717       42230.00    185182.20
   68.55        3338.00           6721       49560.00    217550.20
   68.59        3338.25           6724       54998.00    241607.10
   68.61        3338.50           6728       62399.00    274407.80
   68.64        3338.75           6732       69469.00    305806.20
   68.67        3339.00           6736       77050.00    339544.70
   68.70        3339.25           6739       82558.00    364103.50
   68.73        3339.50           6743       90563.00    399865.10
   68.76        3339.75           6747       98446.00    435162.50
   68.79        3340.00           6751      105800.00    468163.70
   68.82        3340.25           6754      111184.00    492369.10
   68.85        3340.50           6758      119093.00    527995.10
   68.88        3340.75           6762      125753.00    558058.60
   68.91        3341.00           6766      130936.00    581495.40
   68.94        3341.25           6769      133431.00    592790.10
   68.97        3341.50           6773      134142.00    596010.30
   69.00        3341.75           6777      133145.00    591495.00
   69.02        3342.00           6781      128828.00    571959.10
   69.06        3342.25           6784      123791.00    549196.10
   69.09        3342.50           6788      117467.00    520664.10
   69.12        3342.75           6792      109794.00    486116.30
   69.14        3343.00           6795      104373.00    461754.50
   69.18        3343.25           6799       97061.00    428955.10
   69.21        3343.50           6803       89229.00    393899.90
   69.23        3343.75           6807       82158.00    362318.60
   69.26        3344.00           6811       74762.00    329354.50
   69.30        3344.25           6814       68923.00    303379.10
   69.32        3344.50           6818       61017.00    268277.60
   69.35        3344.75           6822       53606.00    235445.60
   69.38        3345.00           6826       45905.00    201401.90
   69.42        3345.25           6829       40387.00    177054.40
   69.44        3345.50           6833       32104.00    140577.80
   69.47        3345.75           6837       24770.00    108351.50
   69.50        3346.00           6841       17262.00     75429.46
   69.54        3346.25           6844       11669.00     50949.61
   69.56        3346.50           6848        5692.00     24831.41
   69.59        3346.75           6852        1894.00      8257.63
   69.62        3347.00           6856         563.00      2453.55
   69.65        3347.25           6859         358.00      1559.80
   69.68        3347.50           6863         223.00       971.26
   69.71        3347.75           6867         193.00       840.48
   69.74        3348.00           6871         169.00       735.85
   69.77        3348.25           6874         164.00       714.05
   69.80        3348.50           6878         149.00       648.66
   69.83        3348.75           6882         145.00       631.22
   69.85        3349.00           6886         148.00       644.30
   69.89        3349.25           6889         161.00       700.97
   69.92        3349.50           6893         139.00       605.07
   69.94        3349.75           6897         134.00       583.27
   69.97        3350.00           6901         144.00       626.87
   70.01        3350.25           6904         131.00       570.19
   70.03        3350.50           6908         135.00       587.63
   70.06        3350.75           6912         135.00       587.63
   70.09        3351.00           6916         138.00       600.71
HL scan finished at 01:12:02
end
