************************************************************
  HL Scan of (1) Internal mercury lamp
************************************************************
Integration time is 0.2294 seconds per sample
dh071218El Arenosillo 37.1 6.73 2.6pr1000
************************************************************
Dead Time -------------------------  3.2E-08 
Number of Cycles Used -------------  4 
Starting Wavelength (Angstroms) ---  3331 
Final Wavelength (Angstoms) -------  3351 
Wavelength Increment (Angstroms) --  .25 
Filter Wheel #1 Position ---------- (1) Ground quartz diffuser (ND=2.32)
Filter Wheel #2 Position ---------- 



************************************************************
HL scan start time = 01:14:57
Dark Count =  .4 


Time (GMT)  Wavelength (Ang)  Step Number  Raw Counts  Counts/Second

   76.39        3331.00           6616         123.00       534.45
   77.43        3331.25           6620         139.00       604.20
   77.46        3331.50           6623         149.00       647.79
   77.49        3331.75           6627         136.00       591.12
   77.52        3332.00           6631         132.00       573.68
   77.55        3332.25           6635         112.00       486.49
   77.58        3332.50           6638         140.00       608.56
   77.61        3332.75           6642         142.00       617.27
   77.63        3333.00           6646         115.00       499.57
   77.67        3333.25           6649         133.00       578.04
   77.69        3333.50           6653         136.00       591.12
   77.72        3333.75           6657         141.00       612.92
   77.75        3334.00           6661         129.00       560.60
   77.78        3334.25           6664         131.00       569.32
   77.81        3334.50           6668         161.00       700.10
   77.84        3334.75           6672         172.00       748.06
   77.87        3335.00           6676         193.00       839.60
   77.90        3335.25           6679         202.00       878.84
   77.93        3335.50           6683         233.00      1013.98
   77.96        3335.75           6687         328.00      1428.14
   77.99        3336.00           6691         954.00      4157.48
   78.02        3336.25           6694        2725.00     11881.59
   78.05        3336.50           6698        7526.00     32840.08
   78.07        3336.75           6702       14438.00     63063.49
   78.11        3337.00           6706       21572.00     94319.12
   78.13        3337.25           6709       26955.00    117944.70
   78.16        3337.50           6713       34064.00    149200.60
   78.19        3337.75           6717       41181.00    180554.60
   78.23        3338.00           6721       48432.00    212563.90
   78.25        3338.25           6724       53689.00    235812.00
   78.28        3338.50           6728       60900.00    267757.90
   78.31        3338.75           6732       67574.00    297383.30
   78.35        3339.00           6736       75113.00    330916.50
   78.37        3339.25           6739       81230.00    358177.80
   78.40        3339.50           6743       88404.00    390211.00
   78.43        3339.75           6747       95322.00    421163.80
   78.46        3340.00           6751      102912.00    455194.50
   78.48        3340.25           6754      108321.00    479492.00
   78.51        3340.50           6758      115500.00    511799.40
   78.55        3340.75           6762      122630.00    543953.10
   78.57        3341.00           6766      128258.00    569380.60
   78.60        3341.25           6769      130798.00    580870.00
   78.63        3341.50           6773      132168.00    587070.60
   78.66        3341.75           6777      131326.00    583259.50
   78.69        3342.00           6781      127724.00    566966.20
   78.71        3342.25           6784      123618.00    548413.90
   78.74        3342.50           6788      116652.00    516990.00
   78.78        3342.75           6792      109591.00    485202.50
   78.80        3343.00           6795      104212.00    461030.70
   78.83        3343.25           6799       96753.00    427574.20
   78.86        3343.50           6803       89725.00    396116.70
   78.89        3343.75           6807       82891.00    365588.60
   78.92        3344.00           6811       75566.00    332933.60
   78.95        3344.25           6814       70027.00    308286.10
   78.98        3344.50           6818       62358.00    274225.00
   79.01        3344.75           6822       54425.00    239069.60
   79.04        3345.00           6826       47205.00    207142.70
   79.07        3345.25           6829       41231.00    180775.10
   79.10        3345.50           6833       33420.00    146366.60
   79.13        3345.75           6837       25952.00    113540.00
   79.16        3346.00           6841       18014.00     78722.93
   79.18        3346.25           6844       12822.00     55992.13
   79.21        3346.50           6848        6376.00     27817.26
   79.24        3346.75           6852        2130.00      9286.11
   79.27        3347.00           6856         671.00      2923.55
   79.29        3347.25           6859         327.00      1423.78
   79.32        3347.50           6863         214.00       931.15
   79.36        3347.75           6867         188.00       817.81
   79.38        3348.00           6871         171.00       743.70
   79.41        3348.25           6874         157.00       682.67
   79.44        3348.50           6878         146.00       634.71
   79.47        3348.75           6882         144.00       625.99
   79.50        3349.00           6886         147.00       639.07
   79.53        3349.25           6889         162.00       704.46
   79.56        3349.50           6893         131.00       569.32
   79.59        3349.75           6897         141.00       612.92
   79.62        3350.00           6901         142.00       617.27
   79.64        3350.25           6904         142.00       617.27
   79.68        3350.50           6908         131.00       569.32
   79.71        3350.75           6912         155.00       673.95
   79.73        3351.00           6916         154.00       669.59
HL scan finished at 01:21:40
end
