************************************************************
  HL Scan of (1) Internal mercury lamp
************************************************************
Integration time is 0.2294 seconds per sample
dh141218El Arenosillo 37.1 6.73 2.41pr1000
************************************************************
Dead Time -------------------------  3.2E-08 
Number of Cycles Used -------------  4 
Starting Wavelength (Angstroms) ---  3331 
Final Wavelength (Angstoms) -------  3351 
Wavelength Increment (Angstroms) --  .25 
Filter Wheel #1 Position ---------- (1) Ground quartz diffuser (ND=2.32)
Filter Wheel #2 Position ---------- 



************************************************************
HL scan start time = 01:18:41
Dark Count =  .2 


Time (GMT)  Wavelength (Ang)  Step Number  Raw Counts  Counts/Second

   80.12        3331.00           6616         148.00       644.30
   81.16        3331.25           6620         121.00       526.60
   81.19        3331.50           6623         111.00       483.01
   81.22        3331.75           6627         138.00       600.71
   81.25        3332.00           6631         149.00       648.66
   81.28        3332.25           6635         138.00       600.71
   81.31        3332.50           6638         124.00       539.68
   81.34        3332.75           6642         136.00       591.99
   81.37        3333.00           6646         128.00       557.12
   81.40        3333.25           6649         125.00       544.04
   81.42        3333.50           6653         115.00       500.44
   81.46        3333.75           6657         119.00       517.88
   81.49        3334.00           6661         147.00       639.94
   81.51        3334.25           6664         151.00       657.38
   81.55        3334.50           6668         140.00       609.43
   81.58        3334.75           6672         179.00       779.44
   81.60        3335.00           6676         189.00       823.04
   81.63        3335.25           6679         203.00       884.07
   81.67        3335.50           6683         215.00       936.38
   81.69        3335.75           6687         397.00      1729.83
   81.72        3336.00           6691        1291.00      5627.87
   81.76        3336.25           6694        3234.00     14103.14
   81.78        3336.50           6698        8618.00     37611.93
   81.81        3336.75           6702       14893.00     65055.96
   81.84        3337.00           6706       21719.00     94964.71
   81.87        3337.25           6709       27259.00    119280.90
   81.90        3337.50           6713       34179.00    149707.60
   81.93        3337.75           6717       40672.00    178311.00
   81.96        3338.00           6721       47339.00    207735.60
   81.99        3338.25           6724       52280.00    229578.40
   82.02        3338.50           6728       58860.00    258714.50
   82.05        3338.75           6732       65252.00    287070.60
   82.08        3339.00           6736       72215.00    318018.50
   82.11        3339.25           6739       77744.00    342636.90
   82.14        3339.50           6743       84639.00    373392.20
   82.18        3339.75           6747       91236.00    402875.50
   82.20        3340.00           6751       98453.00    435193.90
   82.23        3340.25           6754      102405.00    452919.80
   82.26        3340.50           6758      108588.00    480693.30
   82.29        3340.75           6762      114832.00    508791.20
   82.32        3341.00           6766      119209.00    528518.30
   82.34        3341.25           6769      120937.00    536313.10
   82.38        3341.50           6773      121480.00    538763.40
   82.41        3341.75           6777      120211.00    533037.60
   82.43        3342.00           6781      115907.00    513634.00
   82.46        3342.25           6784      111087.00    491932.70
   82.49        3342.50           6788      104589.00    462724.50
   82.52        3342.75           6792       97539.00    431097.20
   82.55        3343.00           6795       92343.00    407828.30
   82.58        3343.25           6799       85718.00    378210.60
   82.61        3343.50           6803       78376.00    345453.40
   82.64        3343.75           6807       71646.00    315487.20
   82.67        3344.00           6811       65249.00    287057.20
   82.70        3344.25           6814       60405.00    265563.70
   82.73        3344.50           6818       53573.00    235299.50
   82.76        3344.75           6822       46866.00    205646.20
   82.79        3345.00           6826       40556.00    177799.50
   82.82        3345.25           6829       35123.00    153863.00
   82.84        3345.50           6833       28196.00    123397.40
   82.88        3345.75           6837       20766.00     90785.60
   82.91        3346.00           6841       13444.00     58714.40
   82.93        3346.25           6844        8620.00     37620.68
   82.96        3346.50           6848        3506.00     15289.96
   83.00        3346.75           6852        1114.00      4856.03
   83.02        3347.00           6856         429.00      1869.34
   83.05        3347.25           6859         270.00      1176.16
   83.09        3347.50           6863         211.00       918.95
   83.11        3347.75           6867         176.00       766.37
   83.14        3348.00           6871         164.00       714.05
   83.17        3348.25           6874         150.00       653.02
   83.20        3348.50           6878         165.00       718.41
   83.23        3348.75           6882         144.00       626.87
   83.26        3349.00           6886         137.00       596.35
   83.29        3349.25           6889         145.00       631.22
   83.32        3349.50           6893         163.00       709.69
   83.35        3349.75           6897         140.00       609.43
   83.38        3350.00           6901         143.00       622.51
   83.40        3350.25           6904         139.00       605.07
   83.43        3350.50           6908         144.00       626.87
   83.46        3350.75           6912         142.00       618.15
   83.49        3351.00           6916         153.00       666.10
HL scan finished at 01:25:26
end
