************************************************************
  HL Scan of (1) Internal mercury lamp
************************************************************
Integration time is 0.2294 seconds per sample
dh211218El Arenosillo 37.1 6.73 2.45pr1000
************************************************************
Dead Time -------------------------  3.2E-08 
Number of Cycles Used -------------  4 
Starting Wavelength (Angstroms) ---  3331 
Final Wavelength (Angstoms) -------  3351 
Wavelength Increment (Angstroms) --  .25 
Filter Wheel #1 Position ---------- (1) Ground quartz diffuser (ND=2.32)
Filter Wheel #2 Position ---------- 



************************************************************
HL scan start time = 01:22:07
Dark Count =  .2 


Time (GMT)  Wavelength (Ang)  Step Number  Raw Counts  Counts/Second

   83.57        3331.00           6616         128.00       557.12
   84.61        3331.25           6620         158.00       687.90
   84.63        3331.50           6623         156.00       679.18
   84.66        3331.75           6627         153.00       666.10
   84.70        3332.00           6631         145.00       631.22
   84.72        3332.25           6635         141.00       613.79
   84.75        3332.50           6638         131.00       570.19
   84.78        3332.75           6642         137.00       596.35
   84.81        3333.00           6646         133.00       578.91
   84.84        3333.25           6649         136.00       591.99
   84.86        3333.50           6653         119.00       517.88
   84.90        3333.75           6657         140.00       609.43
   84.93        3334.00           6661         148.00       644.30
   84.96        3334.25           6664         148.00       644.30
   84.98        3334.50           6668         159.00       692.26
   85.01        3334.75           6672         162.00       705.33
   85.04        3335.00           6676         170.00       740.21
   85.07        3335.25           6679         197.00       857.91
   85.10        3335.50           6683         213.00       927.66
   85.13        3335.75           6687         292.00      1272.07
   85.15        3336.00           6691         706.00      3077.03
   85.19        3336.25           6694        1925.00      8392.84
   85.22        3336.50           6698        6051.00     26398.93
   85.24        3336.75           6702       12151.00     53057.75
   85.27        3337.00           6706       18997.00     83031.13
   85.31        3337.25           6709       24256.00    106095.40
   85.33        3337.50           6713       31072.00    136039.10
   85.36        3337.75           6717       38217.00    167489.90
   85.40        3338.00           6721       45306.00    198757.10
   85.42        3338.25           6724       50140.00    220114.30
   85.45        3338.50           6728       57375.00    252134.30
   85.48        3338.75           6732       64258.00    282657.60
   85.52        3339.00           6736       71755.00    315972.10
   85.54        3339.25           6739       77237.00    340377.80
   85.57        3339.50           6743       84129.00    371115.30
   85.61        3339.75           6747       91050.00    402043.40
   85.63        3340.00           6751       98032.00    433306.70
   85.66        3340.25           6754      102805.00    454715.10
   85.69        3340.50           6758      109787.00    486084.80
   85.71        3340.75           6762      116394.00    515828.30
   85.74        3341.00           6766      121162.00    537328.40
   85.77        3341.25           6769      124522.00    552497.50
   85.80        3341.50           6773      125971.00    559043.60
   85.83        3341.75           6777      125396.00    556445.70
   85.86        3342.00           6781      122035.00    541268.30
   85.89        3342.25           6784      117976.00    522958.60
   85.92        3342.50           6788      111173.00    492319.70
   85.94        3342.75           6792      104362.00    461705.10
   85.97        3343.00           6795       98743.00    436493.90
   86.01        3343.25           6799       92158.00    407000.50
   86.03        3343.50           6803       84277.00    371776.00
   86.06        3343.75           6807       77651.00    342222.50
   86.10        3344.00           6811       70777.00    311622.10
   86.12        3344.25           6814       65684.00    288988.90
   86.15        3344.50           6818       58631.00    257699.60
   86.18        3344.75           6822       51865.00    227742.70
   86.22        3345.00           6826       44961.00    197234.00
   86.24        3345.25           6829       39415.00    172769.50
   86.27        3345.50           6833       32187.00    140942.90
   86.30        3345.75           6837       24958.00    109176.80
   86.33        3346.00           6841       17545.00     76669.13
   86.36        3346.25           6844       12579.00     54929.95
   86.39        3346.50           6848        6350.00     27704.59
   86.42        3346.75           6852        2238.00      9758.06
   86.45        3347.00           6856         714.00      3111.91
   86.47        3347.25           6859         376.00      1638.27
   86.51        3347.50           6863         262.00      1141.28
   86.54        3347.75           6867         195.00       849.19
   86.56        3348.00           6871         164.00       714.05
   86.59        3348.25           6874         159.00       692.26
   86.63        3348.50           6878         149.00       648.66
   86.65        3348.75           6882         153.00       666.10
   86.68        3349.00           6886         150.00       653.02
   86.71        3349.25           6889         139.00       605.07
   86.74        3349.50           6893         132.00       574.55
   86.77        3349.75           6897         146.00       635.58
   86.80        3350.00           6901         144.00       626.87
   86.83        3350.25           6904         136.00       591.99
   86.86        3350.50           6908         143.00       622.51
   86.89        3350.75           6912         158.00       687.90
   86.92        3351.00           6916         146.00       635.58
HL scan finished at 01:28:51
end
