************************************************************
  HL Scan of (1) Internal mercury lamp
************************************************************
Integration time is 0.2294 seconds per sample
dh281218El Arenosillo 37.1 6.73 2.45pr1000
************************************************************
Dead Time -------------------------  3.2E-08 
Number of Cycles Used -------------  4 
Starting Wavelength (Angstroms) ---  3331 
Final Wavelength (Angstoms) -------  3351 
Wavelength Increment (Angstroms) --  .25 
Filter Wheel #1 Position ---------- (1) Ground quartz diffuser (ND=2.32)
Filter Wheel #2 Position ---------- 



************************************************************
HL scan start time = 01:25:31
Dark Count =  .2 


Time (GMT)  Wavelength (Ang)  Step Number  Raw Counts  Counts/Second

   86.96        3331.00           6616         148.00       644.30
   88.00        3331.25           6620         142.00       618.15
   88.03        3331.50           6623         162.00       705.33
   88.06        3331.75           6627         125.00       544.04
   88.09        3332.00           6631         148.00       644.30
   88.12        3332.25           6635         130.00       565.83
   88.14        3332.50           6638         119.00       517.88
   88.17        3332.75           6642         141.00       613.79
   88.21        3333.00           6646         129.00       561.47
   88.23        3333.25           6649         160.00       696.62
   88.26        3333.50           6653         132.00       574.55
   88.30        3333.75           6657         152.00       661.74
   88.32        3334.00           6661         128.00       557.12
   88.35        3334.25           6664         139.00       605.07
   88.38        3334.50           6668         154.00       670.46
   88.41        3334.75           6672         166.00       722.77
   88.44        3335.00           6676         184.00       801.24
   88.47        3335.25           6679         213.00       927.66
   88.50        3335.50           6683         230.00      1001.78
   88.53        3335.75           6687         470.00      2048.09
   88.55        3336.00           6691        1921.00      8375.39
   88.58        3336.25           6694        4671.00     20374.22
   88.61        3336.50           6698       10680.00     46624.88
   88.64        3336.75           6702       17195.00     75135.97
   88.67        3337.00           6706       23710.00    103699.30
   88.71        3337.25           6709       29263.00    128086.30
   88.73        3337.50           6713       36121.00    158257.20
   88.76        3337.75           6717       42717.00    187330.60
   88.80        3338.00           6721       49673.00    218049.80
   88.83        3338.25           6724       55345.00    243143.40
   88.85        3338.50           6728       62574.00    275184.20
   88.88        3338.75           6732       69821.00    307371.10
   88.92        3339.00           6736       77212.00    340266.40
   88.95        3339.25           6739       82928.00    365754.60
   88.97        3339.50           6743       89363.00    394499.00
   89.01        3339.75           6747       96783.00    427709.50
   89.04        3340.00           6751      103223.00    456591.40
   89.06        3340.25           6754      108255.00    479196.20
   89.09        3340.50           6758      115907.00    513634.00
   89.12        3340.75           6762      121787.00    540148.80
   89.15        3341.00           6766      125742.00    558009.00
   89.18        3341.25           6769      127050.00    563920.10
   89.21        3341.50           6773      127342.00    565240.10
   89.24        3341.75           6777      124985.00    554588.90
   89.26        3342.00           6781      120804.00    535713.10
   89.30        3342.25           6784      115626.00    512367.90
   89.33        3342.50           6788      108489.00    480248.20
   89.35        3342.75           6792      101093.00    447032.90
   89.38        3343.00           6795       96040.00    424380.70
   89.41        3343.25           6799       88377.00    390091.20
   89.44        3343.50           6803       81304.00    358508.80
   89.47        3343.75           6807       74090.00    326362.80
   89.50        3344.00           6811       67168.00    295580.30
   89.52        3344.25           6814       61817.00    271825.90
   89.55        3344.50           6818       54899.00    241168.80
   89.58        3344.75           6822       48075.00    210987.30
   89.61        3345.00           6826       40747.00    178641.70
   89.64        3345.25           6829       36154.00    158402.50
   89.67        3345.50           6833       28847.00    126258.00
   89.70        3345.75           6837       21680.00     94793.66
   89.73        3346.00           6841       14573.00     63655.26
   89.76        3346.25           6844        9555.00     41706.89
   89.78        3346.50           6848        4324.00     18859.68
   89.82        3346.75           6852        1372.00      5981.09
   89.85        3347.00           6856         446.00      1943.45
   89.87        3347.25           6859         288.00      1254.63
   89.91        3347.50           6863         220.00       958.18
   89.94        3347.75           6867         175.00       762.01
   89.96        3348.00           6871         171.00       744.57
   89.99        3348.25           6874         158.00       687.90
   90.02        3348.50           6878         144.00       626.87
   90.05        3348.75           6882         156.00       679.18
   90.08        3349.00           6886         144.00       626.87
   90.11        3349.25           6889         150.00       653.02
   90.14        3349.50           6893         139.00       605.07
   90.16        3349.75           6897         161.00       700.97
   90.20        3350.00           6901         140.00       609.43
   90.23        3350.25           6904         143.00       622.51
   90.26        3350.50           6908         154.00       670.46
   90.28        3350.75           6912         148.00       644.30
   90.32        3351.00           6916         154.00       670.46
HL scan finished at 01:32:15
end
