************************************************************
  HS Scan of (1) Internal mercury lamp
************************************************************
Integration time is 0.2294 seconds per sample
dh060117El Arenosillo 37.1 6.73 2.41pr1000
************************************************************
Dead Time -------------------------  3.2E-08 
Number of Cycles Used -------------  4 
Starting Wavelength (Angstroms) ---  2950 
Final Wavelength (Angstoms) -------  2984 
Wavelength Increment (Angstroms) --  .25 
Filter Wheel #1 Position ---------- (1) Ground quartz diffuser (ND=2.32)
Filter Wheel #2 Position ---------- (1) Neutral Density 0.494



************************************************************
HS scan start time = 01:27:47
Dark Count =  .1 


Time (GMT)  Wavelength (Ang)  Step Number  Raw Counts  Counts/Second

   88.43        2950.00           1211          46.00       200.09
   88.64        2950.25           1215          50.00       217.53
   88.67        2950.50           1218          43.00       187.01
   88.69        2950.75           1222          43.00       187.01
   88.73        2951.00           1225          45.00       195.73
   88.76        2951.25           1228          45.00       195.73
   88.78        2951.50           1232          45.00       195.73
   88.81        2951.75           1235          45.00       195.73
   88.84        2952.00           1238          47.00       204.45
   88.87        2952.25           1242          49.00       213.17
   88.89        2952.50           1245          52.00       226.24
   88.92        2952.75           1249          46.00       200.09
   88.96        2953.00           1252          49.00       213.17
   88.98        2953.25           1255          47.00       204.45
   89.01        2953.50           1259          52.00       226.24
   89.04        2953.75           1262          49.00       213.17
   89.07        2954.00           1265          52.00       226.24
   89.10        2954.25           1269          44.00       191.37
   89.12        2954.50           1272          48.00       208.81
   89.15        2954.75           1276          54.00       234.96
   89.18        2955.00           1279          51.00       221.88
   89.21        2955.25           1282          50.00       217.53
   89.24        2955.50           1286          47.00       204.45
   89.26        2955.75           1289          48.00       208.81
   89.30        2956.00           1293          53.00       230.60
   89.32        2956.25           1296          49.00       213.17
   89.35        2956.50           1299          54.00       234.96
   89.38        2956.75           1303          51.00       221.88
   89.41        2957.00           1306          44.00       191.37
   89.44        2957.25           1309          51.00       221.88
   89.47        2957.50           1313          49.00       213.17
   89.50        2957.75           1316          53.00       230.60
   89.53        2958.00           1320          45.00       195.73
   89.56        2958.25           1323          55.00       239.32
   89.58        2958.50           1326          54.00       234.96
   89.61        2958.75           1330          53.00       230.60
   89.64        2959.00           1333          58.00       252.40
   89.67        2959.25           1336          62.00       269.84
   89.70        2959.50           1340          68.00       295.99
   89.72        2959.75           1343          66.00       287.27
   89.76        2960.00           1347          73.00       317.79
   89.78        2960.25           1350          84.00       365.74
   89.81        2960.50           1353         104.00       452.93
   89.84        2960.75           1357         120.00       522.68
   89.87        2961.00           1360         138.00       601.14
   89.90        2961.25           1364         299.00      1303.02
   89.93        2961.50           1367         837.00      3648.64
   89.95        2961.75           1370        2121.00      9248.16
   89.99        2962.00           1374        5198.00     22675.12
   90.01        2962.25           1377        8175.00     35676.72
   90.04        2962.50           1380       11504.00     50228.45
   90.07        2962.75           1384       15475.00     67604.25
   90.10        2963.00           1387       18504.00     80871.18
   90.13        2963.25           1391       22316.00     97583.68
   90.15        2963.50           1394       25241.00    110419.60
   90.18        2963.75           1397       28224.00    123520.90
   90.22        2964.00           1401       32191.00    140960.90
   90.24        2964.25           1404       35067.00    153616.90
   90.27        2964.50           1408       38902.00    170508.90
   90.30        2964.75           1411       42300.00    185491.40
   90.33        2965.00           1414       44831.00    196660.50
   90.36        2965.25           1418       48864.00    214474.40
   90.39        2965.50           1421       52366.00    229959.30
   90.42        2965.75           1424       54829.00    240859.30
   90.45        2966.00           1428       58639.00    257735.50
   90.48        2966.25           1431       61629.00    270992.40
   90.50        2966.50           1435       64111.00    282005.50
   90.53        2966.75           1438       64607.00    284207.30
   90.57        2967.00           1441       65080.00    286307.30
   90.59        2967.25           1445       64880.00    285419.30
   90.62        2967.50           1448       64765.00    284908.80
   90.65        2967.75           1452       63765.00    280469.80
   90.68        2968.00           1455       62369.00    274275.10
   90.71        2968.25           1458       59982.00    263688.60
   90.73        2968.50           1462       56378.00    247718.30
   90.76        2968.75           1465       40863.00    179153.60
   90.78        2969.00           1469       49079.00    215424.60
   90.81        2969.25           1472       46043.00    202011.80
   90.83        2969.50           1475       42802.00    187706.10
   90.86        2969.75           1479       38941.00    170680.80
   90.90        2970.00           1482       35972.00    157601.50
   90.92        2970.25           1485       32975.00    144409.90
   90.95        2970.50           1489       29349.00    128464.70
   90.98        2970.75           1492       26808.00    117300.40
   91.02        2971.00           1496       22849.00     99921.88
   91.04        2971.25           1499       19887.00     86932.43
   91.07        2971.50           1502       16921.00     73936.28
   91.10        2971.75           1506       12608.00     55057.25
   91.13        2972.00           1509        9806.00     42804.46
   91.16        2972.25           1513        5672.00     24744.52
   91.18        2972.50           1516        3082.00     13440.39
   91.21        2972.75           1519        1277.00      5567.25
   91.24        2973.00           1523         286.00      1246.34
   91.27        2973.25           1526         152.00       662.18
   91.30        2973.50           1530          93.00       404.97
   91.33        2973.75           1533          93.00       404.97
   91.36        2974.00           1536          72.00       313.43
   91.38        2974.25           1540          66.00       287.27
   91.41        2974.50           1543          66.00       287.27
   91.44        2974.75           1547          59.00       256.76
   91.47        2975.00           1550          58.00       252.40
   91.50        2975.25           1553          59.00       256.76
   91.53        2975.50           1557          45.00       195.73
   91.55        2975.75           1560          57.00       248.04
   91.59        2976.00           1564          53.00       230.60
   91.61        2976.25           1567          51.00       221.88
   91.64        2976.50           1570          51.00       221.88
   91.67        2976.75           1574          56.00       243.68
   91.70        2977.00           1577          56.00       243.68
   91.73        2977.25           1581          56.00       243.68
   91.75        2977.50           1584          55.00       239.32
   91.78        2977.75           1587          57.00       248.04
   91.81        2978.00           1591          56.00       243.68
   91.84        2978.25           1594          55.00       239.32
   91.87        2978.50           1598          53.00       230.60
   91.90        2978.75           1601          51.00       221.88
   91.93        2979.00           1604          50.00       217.53
   91.95        2979.25           1608          57.00       248.04
   91.98        2979.50           1611          54.00       234.96
   92.01        2979.75           1614          49.00       213.17
   92.04        2980.00           1618          55.00       239.32
   92.07        2980.25           1621          53.00       230.60
   92.09        2980.50           1625          53.00       230.60
   92.12        2980.75           1628          54.00       234.96
   92.15        2981.00           1631          49.00       213.17
   92.18        2981.25           1635          52.00       226.24
   92.21        2981.50           1638          51.00       221.88
   92.24        2981.75           1642          55.00       239.32
   92.27        2982.00           1645          59.00       256.76
   92.29        2982.25           1648          55.00       239.32
   92.32        2982.50           1652          60.00       261.12
   92.35        2982.75           1655          56.00       243.68
   92.38        2983.00           1659          46.00       200.09
   92.41        2983.25           1662          51.00       221.88
   92.44        2983.50           1666          50.00       217.53
   92.47        2983.75           1669          54.00       234.96
   92.50        2984.00           1672          52.00       226.24
HS scan finished at 01:32:52
end
