************************************************************
  HS Scan of (1) Internal mercury lamp
************************************************************
Integration time is 0.2294 seconds per sample
dh060118El Arenosillo 37.1 6.73 2.47pr1000
************************************************************
Dead Time -------------------------  3.2E-08 
Number of Cycles Used -------------  4 
Starting Wavelength (Angstroms) ---  2950 
Final Wavelength (Angstoms) -------  2984 
Wavelength Increment (Angstroms) --  .25 
Filter Wheel #1 Position ---------- (1) Ground quartz diffuser (ND=2.32)
Filter Wheel #2 Position ---------- (1) Neutral Density 0.494



************************************************************
HS scan start time = 01:28:22
Dark Count =  .3 


Time (GMT)  Wavelength (Ang)  Step Number  Raw Counts  Counts/Second

   88.98        2950.00           1211          85.00       369.23
   89.20        2950.25           1215          80.00       347.43
   89.23        2950.50           1218          86.00       373.59
   89.25        2950.75           1222          87.00       377.95
   89.29        2951.00           1225          78.00       338.71
   89.32        2951.25           1228          90.00       391.02
   89.34        2951.50           1232          81.00       351.79
   89.38        2951.75           1235          90.00       391.02
   89.40        2952.00           1238          78.00       338.71
   89.43        2952.25           1242          86.00       373.59
   89.46        2952.50           1245          84.00       364.87
   89.49        2952.75           1249          93.00       404.10
   89.52        2953.00           1252          86.00       373.59
   89.55        2953.25           1255          90.00       391.02
   89.58        2953.50           1259          86.00       373.59
   89.61        2953.75           1262          88.00       382.31
   89.63        2954.00           1265          85.00       369.23
   89.67        2954.25           1269          93.00       404.10
   89.69        2954.50           1272          93.00       404.10
   89.72        2954.75           1276          88.00       382.31
   89.75        2955.00           1279          88.00       382.31
   89.78        2955.25           1282          87.00       377.95
   89.81        2955.50           1286         107.00       465.13
   89.84        2955.75           1289          90.00       391.02
   89.87        2956.00           1293          85.00       369.23
   89.90        2956.25           1296          92.00       399.74
   89.92        2956.50           1299          90.00       391.02
   89.96        2956.75           1303          92.00       399.74
   89.98        2957.00           1306          87.00       377.95
   90.01        2957.25           1309          92.00       399.74
   90.04        2957.50           1313          86.00       373.59
   90.07        2957.75           1316          92.00       399.74
   90.10        2958.00           1320         117.00       508.73
   90.13        2958.25           1323          87.00       377.95
   90.16        2958.50           1326          98.00       425.90
   90.19        2958.75           1330          96.00       417.18
   90.22        2959.00           1333          93.00       404.10
   90.25        2959.25           1336         142.00       617.71
   90.27        2959.50           1340         123.00       534.88
   90.30        2959.75           1343         151.00       656.94
   90.33        2960.00           1347         156.00       678.74
   90.36        2960.25           1350         181.00       787.73
   90.39        2960.50           1353         214.00       931.59
   90.42        2960.75           1357         282.00      1228.03
   90.45        2961.00           1360         323.00      1406.78
   90.48        2961.25           1364         649.00      2828.07
   90.51        2961.50           1367        1716.00      7480.87
   90.54        2961.75           1370        4667.00     20356.33
   90.57        2962.00           1374       13689.00     59786.03
   90.59        2962.25           1377       22530.00     98521.53
   90.63        2962.50           1380       30989.00    135673.60
   90.65        2962.75           1384       42502.00    186381.60
   90.68        2963.00           1387       51562.00    226402.00
   90.71        2963.25           1391       62609.00    275339.00
   90.74        2963.50           1394       71137.00    313222.80
   90.77        2963.75           1397       80199.00    353580.10
   90.80        2964.00           1401       92155.00    406986.60
   90.83        2964.25           1404      101212.00    447566.30
   90.86        2964.50           1408      113391.00    502301.80
   90.89        2964.75           1411      121786.00    540144.00
   90.92        2965.00           1414      131020.00    581875.10
   90.95        2965.25           1418      142399.00    633455.40
   90.98        2965.50           1421      150545.00    670486.60
   91.01        2965.75           1424      158672.00    707520.10
   91.04        2966.00           1428      170222.00    760305.00
   91.06        2966.25           1431      178216.00    796944.50
   91.10        2966.50           1435      187725.00    840641.30
   91.12        2966.75           1438      191064.00    856014.60
   91.15        2967.00           1441      191607.00    858516.10
   91.18        2967.25           1445      191823.00    859511.30
   91.21        2967.50           1448      191939.00    860045.80
   91.24        2967.75           1452      189986.00    851049.70
   91.27        2968.00           1455      185510.00    830451.60
   91.30        2968.25           1458      178959.00    800354.30
   91.33        2968.50           1462      168578.00    752780.60
   91.35        2968.75           1465      159441.00    711029.00
   91.39        2969.00           1469      148675.00    661977.90
   91.41        2969.25           1472      140669.00    625602.30
   91.44        2969.50           1475      131879.00    585762.90
   91.48        2969.75           1479      119047.00    527787.20
   91.50        2970.00           1482      110923.00    491194.40
   91.53        2970.25           1485      102603.00    453808.00
   91.56        2970.50           1489       91475.00    403944.20
   91.59        2970.75           1492       83091.00    366481.60
   91.62        2971.00           1496       72186.00    317889.10
   91.65        2971.25           1499       63126.00    277633.10
   91.68        2971.50           1502       54555.00    239645.50
   91.71        2971.75           1506       42314.00    185552.30
   91.74        2972.00           1509       33219.00    145482.60
   91.77        2972.25           1513       20827.00     91052.61
   91.80        2972.50           1516       12805.00     55918.19
   91.82        2972.75           1519        5923.00     25839.58
   91.85        2973.00           1523        1177.00      5130.31
   91.88        2973.25           1526         475.00      2069.45
   91.91        2973.50           1530         313.00      1363.18
   91.94        2973.75           1533         267.00      1162.64
   91.97        2974.00           1536         193.00       840.04
   92.00        2974.25           1540         161.00       700.54
   92.02        2974.50           1543         147.00       639.51
   92.06        2974.75           1547         117.00       508.73
   92.09        2975.00           1550         114.00       495.65
   92.11        2975.25           1553         104.00       452.06
   92.15        2975.50           1557         133.00       578.48
   92.17        2975.75           1560          88.00       382.31
   92.20        2976.00           1564          91.00       395.38
   92.23        2976.25           1567          98.00       425.90
   92.26        2976.50           1570         119.00       517.45
   92.29        2976.75           1574          99.00       430.26
   92.31        2977.00           1577          98.00       425.90
   92.35        2977.25           1581          94.00       408.46
   92.38        2977.50           1584          92.00       399.74
   92.40        2977.75           1587         121.00       526.16
   92.44        2978.00           1591         110.00       478.21
   92.46        2978.25           1594          96.00       417.18
   92.49        2978.50           1598         106.00       460.77
   92.52        2978.75           1601          94.00       408.46
   92.54        2979.00           1604          96.00       417.18
   92.57        2979.25           1608         106.00       460.77
   92.59        2979.50           1611          88.00       382.31
   92.63        2979.75           1614          96.00       417.18
   92.66        2980.00           1618          96.00       417.18
   92.68        2980.25           1621          97.00       421.54
   92.72        2980.50           1625          96.00       417.18
   92.74        2980.75           1628          91.00       395.38
   92.77        2981.00           1631         104.00       452.06
   92.80        2981.25           1635          93.00       404.10
   92.83        2981.50           1638          94.00       408.46
   92.86        2981.75           1642          96.00       417.18
   92.88        2982.00           1645         101.00       438.98
   92.92        2982.25           1648         105.00       456.41
   92.94        2982.50           1652          87.00       377.95
   92.97        2982.75           1655         113.00       491.29
   93.00        2983.00           1659          98.00       425.90
   93.03        2983.25           1662          86.00       373.59
   93.06        2983.50           1666         102.00       443.34
   93.09        2983.75           1669          94.00       408.46
   93.12        2984.00           1672          94.00       408.46
HS scan finished at 01:33:29
end
