************************************************************
  HS Scan of (1) Internal mercury lamp
************************************************************
Integration time is 0.2294 seconds per sample
dh130117El Arenosillo 37.1 6.73 2.49pr1000
************************************************************
Dead Time -------------------------  3.2E-08 
Number of Cycles Used -------------  4 
Starting Wavelength (Angstroms) ---  2950 
Final Wavelength (Angstoms) -------  2984 
Wavelength Increment (Angstroms) --  .25 
Filter Wheel #1 Position ---------- (1) Ground quartz diffuser (ND=2.32)
Filter Wheel #2 Position ---------- (1) Neutral Density 0.494



************************************************************
HS scan start time = 01:30:39
Dark Count =  .2 


Time (GMT)  Wavelength (Ang)  Step Number  Raw Counts  Counts/Second

   91.29        2950.00           1211          55.00       238.89
   91.50        2950.25           1215          50.00       217.09
   91.53        2950.50           1218          47.00       204.01
   91.56        2950.75           1222          54.00       234.53
   91.59        2951.00           1225          47.00       204.01
   91.62        2951.25           1228          46.00       199.65
   91.65        2951.50           1232          48.00       208.37
   91.68        2951.75           1235          48.00       208.37
   91.71        2952.00           1238          43.00       186.57
   91.73        2952.25           1242          48.00       208.37
   91.76        2952.50           1245          44.00       190.93
   91.79        2952.75           1249          49.00       212.73
   91.82        2953.00           1252          43.00       186.57
   91.85        2953.25           1255          49.00       212.73
   91.87        2953.50           1259          47.00       204.01
   91.90        2953.75           1262          51.00       221.45
   91.94        2954.00           1265          46.00       199.65
   91.96        2954.25           1269          45.00       195.29
   91.99        2954.50           1272          49.00       212.73
   92.01        2954.75           1276          42.00       182.22
   92.05        2955.00           1279          43.00       186.57
   92.08        2955.25           1282          51.00       221.45
   92.10        2955.50           1286          47.00       204.01
   92.13        2955.75           1289          51.00       221.45
   92.16        2956.00           1293          48.00       208.37
   92.19        2956.25           1296          49.00       212.73
   92.22        2956.50           1299          45.00       195.29
   92.25        2956.75           1303          56.00       243.25
   92.28        2957.00           1306          49.00       212.73
   92.30        2957.25           1309          51.00       221.45
   92.33        2957.50           1313          47.00       204.01
   92.35        2957.75           1316          47.00       204.01
   92.39        2958.00           1320          47.00       204.01
   92.42        2958.25           1323          46.00       199.65
   92.44        2958.50           1326          48.00       208.37
   92.47        2958.75           1330          54.00       234.53
   92.50        2959.00           1333          54.00       234.53
   92.53        2959.25           1336          65.00       282.48
   92.56        2959.50           1340          64.00       278.12
   92.59        2959.75           1343          74.00       321.71
   92.62        2960.00           1347          84.00       365.31
   92.64        2960.25           1350          93.00       404.54
   92.67        2960.50           1353         104.00       452.49
   92.70        2960.75           1357         117.00       509.16
   92.73        2961.00           1360         153.00       666.10
   92.76        2961.25           1364         227.00       988.70
   92.79        2961.50           1367         610.00      2658.47
   92.82        2961.75           1370        1726.00      7524.92
   92.85        2962.00           1374        4746.00     20701.59
   92.87        2962.25           1377        7686.00     33539.90
   92.90        2962.50           1380       10780.00     47062.11
   92.93        2962.75           1384       15026.00     65638.16
   92.95        2963.00           1387       18033.00     78807.03
   92.98        2963.25           1391       21907.00     95789.26
   93.01        2963.50           1394       24757.00    108294.40
   93.04        2963.75           1397       27889.00    122048.50
   93.07        2964.00           1401       31749.00    139016.40
   93.10        2964.25           1404       34734.00    152150.50
   93.12        2964.50           1408       38800.00    170058.90
   93.15        2964.75           1411       42078.00    184511.70
   93.18        2965.00           1414       45465.00    199459.10
   93.21        2965.25           1418       49612.00    217780.10
   93.24        2965.50           1421       52924.00    232427.60
   93.27        2965.75           1424       55770.00    245025.30
   93.30        2966.00           1428       59571.00    261866.10
   93.33        2966.25           1431       62469.00    274718.30
   93.35        2966.50           1435       65406.00    287754.40
   93.38        2966.75           1438       66709.00    293541.30
   93.41        2967.00           1441       67210.00    295766.90
   93.44        2967.25           1445       67323.00    296269.00
   93.47        2967.50           1448       67306.00    296193.40
   93.50        2967.75           1452       66785.00    293878.90
   93.53        2968.00           1455       65606.00    288642.50
   93.56        2968.25           1458       62776.00    276080.50
   93.58        2968.50           1462       59011.00    259383.80
   93.61        2968.75           1465       55830.00    245291.00
   93.64        2969.00           1469       51967.00    228193.90
   93.67        2969.25           1472       49189.00    215910.40
   93.70        2969.50           1475       45986.00    201759.70
   93.72        2969.75           1479       41887.00    183669.20
   93.76        2970.00           1482       39255.00    172064.30
   93.79        2970.25           1485       36330.00    159177.50
   93.82        2970.50           1489       32311.00    141488.40
   93.85        2970.75           1492       29241.00    127989.60
   93.88        2971.00           1496       24919.00    109005.60
   93.91        2971.25           1499       21728.00     95004.18
   93.93        2971.50           1502       14845.00     64845.85
   93.95        2971.75           1506       14732.00     64351.21
   93.98        2972.00           1509       11627.00     50765.92
   94.01        2972.25           1513        7693.00     33570.48
   94.04        2972.50           1516        4965.00     21657.55
   94.06        2972.75           1519        2582.00     11258.63
   94.10        2973.00           1523         596.00      2597.43
   94.12        2973.25           1526         201.00       875.35
   94.15        2973.50           1530         124.00       539.68
   94.18        2973.75           1533          90.00       391.46
   94.21        2974.00           1536          78.00       339.15
   94.24        2974.25           1540          74.00       321.71
   94.26        2974.50           1543          63.00       273.76
   94.29        2974.75           1547          53.00       230.17
   94.32        2975.00           1550          53.00       230.17
   94.35        2975.25           1553          54.00       234.53
   94.38        2975.50           1557          50.00       217.09
   94.41        2975.75           1560          48.00       208.37
   94.44        2976.00           1564          58.00       251.96
   94.46        2976.25           1567          52.00       225.81
   94.49        2976.50           1570          58.00       251.96
   94.52        2976.75           1574          47.00       204.01
   94.55        2977.00           1577          49.00       212.73
   94.58        2977.25           1581          56.00       243.25
   94.60        2977.50           1584          56.00       243.25
   94.63        2977.75           1587          49.00       212.73
   94.66        2978.00           1591          50.00       217.09
   94.69        2978.25           1594          56.00       243.25
   94.72        2978.50           1598          48.00       208.37
   94.75        2978.75           1601          43.00       186.57
   94.78        2979.00           1604          44.00       190.93
   94.81        2979.25           1608          48.00       208.37
   94.83        2979.50           1611          48.00       208.37
   94.86        2979.75           1614          54.00       234.53
   94.89        2980.00           1618          45.00       195.29
   94.92        2980.25           1621          61.00       265.04
   94.95        2980.50           1625          48.00       208.37
   94.98        2980.75           1628          56.00       243.25
   95.01        2981.00           1631          55.00       238.89
   95.03        2981.25           1635          50.00       217.09
   95.06        2981.50           1638          56.00       243.25
   95.09        2981.75           1642          56.00       243.25
   95.12        2982.00           1645          52.00       225.81
   95.15        2982.25           1648          51.00       221.45
   95.17        2982.50           1652          47.00       204.01
   95.20        2982.75           1655          51.00       221.45
   95.23        2983.00           1659          48.00       208.37
   95.26        2983.25           1662          50.00       217.09
   95.29        2983.50           1666          45.00       195.29
   95.32        2983.75           1669          48.00       208.37
   95.35        2984.00           1672          50.00       217.09
HS scan finished at 01:35:43
end
