************************************************************
  HS Scan of (1) Internal mercury lamp
************************************************************
Integration time is 0.2294 seconds per sample
dh130118El Arenosillo 37.1 6.73 2.33pr1000
************************************************************
Dead Time -------------------------  3.2E-08 
Number of Cycles Used -------------  4 
Starting Wavelength (Angstroms) ---  2950 
Final Wavelength (Angstoms) -------  2984 
Wavelength Increment (Angstroms) --  .25 
Filter Wheel #1 Position ---------- (1) Ground quartz diffuser (ND=2.32)
Filter Wheel #2 Position ---------- (1) Neutral Density 0.494



************************************************************
HS scan start time = 01:33:02
Dark Count =  .2 


Time (GMT)  Wavelength (Ang)  Step Number  Raw Counts  Counts/Second

   93.65        2950.00           1211          96.00       417.62
   93.86        2950.25           1215          92.00       400.18
   93.89        2950.50           1218          88.00       382.74
   93.92        2950.75           1222          86.00       374.02
   93.95        2951.00           1225          83.00       360.95
   93.98        2951.25           1228          85.00       369.66
   94.01        2951.50           1232          86.00       374.02
   94.04        2951.75           1235          90.00       391.46
   94.07        2952.00           1238          87.00       378.38
   94.09        2952.25           1242          87.00       378.38
   94.12        2952.50           1245          81.00       352.23
   94.16        2952.75           1249          80.00       347.87
   94.18        2953.00           1252          82.00       356.59
   94.21        2953.25           1255          83.00       360.95
   94.24        2953.50           1259          85.00       369.66
   94.27        2953.75           1262          89.00       387.10
   94.30        2954.00           1265          93.00       404.54
   94.33        2954.25           1269          86.00       374.02
   94.36        2954.50           1272          75.00       326.07
   94.38        2954.75           1276          78.00       339.15
   94.42        2955.00           1279          93.00       404.54
   94.44        2955.25           1282          88.00       382.74
   94.47        2955.50           1286          86.00       374.02
   94.50        2955.75           1289          81.00       352.23
   94.52        2956.00           1293          88.00       382.74
   94.55        2956.25           1296          85.00       369.66
   94.58        2956.50           1299          80.00       347.87
   94.61        2956.75           1303          81.00       352.23
   94.64        2957.00           1306          90.00       391.46
   94.67        2957.25           1309          86.00       374.02
   94.70        2957.50           1313          93.00       404.54
   94.73        2957.75           1316          81.00       352.23
   94.75        2958.00           1320          92.00       400.18
   94.79        2958.25           1323         105.00       456.85
   94.82        2958.50           1326          90.00       391.46
   94.84        2958.75           1330          81.00       352.23
   94.87        2959.00           1333         105.00       456.85
   94.90        2959.25           1336         107.00       465.57
   94.93        2959.50           1340         145.00       631.22
   94.96        2959.75           1343         148.00       644.30
   94.99        2960.00           1347         148.00       644.30
   95.02        2960.25           1350         190.00       827.40
   95.04        2960.50           1353         238.00      1036.65
   95.08        2960.75           1357         266.00      1158.72
   95.10        2961.00           1360         307.00      1337.46
   95.13        2961.25           1364         694.00      3024.70
   95.16        2961.50           1367        1904.00      8301.25
   95.19        2961.75           1370        5152.00     22473.87
   95.22        2962.00           1374       13507.00     58990.07
   95.25        2962.25           1377       21316.00     93197.33
   95.28        2962.50           1380       29240.00    127985.20
   95.31        2962.75           1384       39515.00    173210.30
   95.34        2963.00           1387       47316.00    207633.90
   95.37        2963.25           1391       57249.00    251576.00
   95.40        2963.50           1394       65373.00    287607.80
   95.42        2963.75           1397       72516.00    319357.80
   95.46        2964.00           1401       82414.00    363460.90
   95.49        2964.25           1404       90352.00    398921.50
   95.51        2964.50           1408      101299.00    447957.00
   95.54        2964.75           1411      109125.00    483107.80
   95.57        2965.00           1414      117469.00    520673.10
   95.60        2965.25           1418      128607.00    570959.60
   95.62        2965.50           1421      135888.00    603920.80
   95.66        2965.75           1424      143377.00    637897.10
   95.69        2966.00           1428      153165.00    682416.30
   95.71        2966.25           1431      158514.00    706799.70
   95.75        2966.50           1435      164845.00    735709.50
   95.77        2966.75           1438      167729.00    748896.80
   95.80        2967.00           1441      168230.00    751188.80
   95.83        2967.25           1445      167966.00    749981.00
   95.86        2967.50           1448      167374.00    747272.90
   95.89        2967.75           1452      164860.00    735778.00
   95.92        2968.00           1455      160630.00    716456.10
   95.95        2968.25           1458      154381.00    687956.10
   95.97        2968.50           1462      144537.00    643166.50
   96.00        2968.75           1465      137134.00    609568.50
   96.03        2969.00           1469      127200.00    564598.30
   96.06        2969.25           1472      119603.00    530295.20
   96.09        2969.50           1475      112594.00    498714.50
   96.12        2969.75           1479      102517.00    453422.50
   96.15        2970.00           1482       95245.00    420819.80
   96.18        2970.25           1485       88555.00    390886.80
   96.20        2970.50           1489       79632.00    351052.30
   96.23        2970.75           1492       71723.00    315829.80
   96.26        2971.00           1496       61303.00    269546.00
   96.29        2971.25           1499       54236.00    238233.90
   96.33        2971.50           1502       46406.00    203614.50
   96.35        2971.75           1506       36762.00    161080.10
   96.38        2972.00           1509       30069.00    131629.10
   96.41        2972.25           1513       19675.00     86002.71
   96.44        2972.50           1516       12766.00     55748.01
   96.47        2972.75           1519        6530.00     28490.65
   96.50        2973.00           1523        1589.00      6927.43
   96.53        2973.25           1526         481.00      2096.04
   96.55        2973.50           1530         280.00      1219.75
   96.58        2973.75           1533         194.00       844.84
   96.61        2974.00           1536         166.00       722.77
   96.64        2974.25           1540         141.00       613.79
   96.67        2974.50           1543         116.00       504.80
   96.70        2974.75           1547         136.00       591.99
   96.73        2975.00           1550          98.00       426.34
   96.75        2975.25           1553         107.00       465.57
   96.79        2975.50           1557          97.00       421.98
   96.81        2975.75           1560          91.00       395.82
   96.84        2976.00           1564         112.00       487.37
   96.87        2976.25           1567         111.00       483.01
   96.89        2976.50           1570          92.00       400.18
   96.92        2976.75           1574          96.00       417.62
   96.95        2977.00           1577          82.00       356.59
   96.98        2977.25           1581          94.00       408.90
   97.01        2977.50           1584          97.00       421.98
   97.03        2977.75           1587         117.00       509.16
   97.07        2978.00           1591          88.00       382.74
   97.09        2978.25           1594         100.00       435.05
   97.12        2978.50           1598          98.00       426.34
   97.16        2978.75           1601          92.00       400.18
   97.18        2979.00           1604         113.00       491.73
   97.21        2979.25           1608         112.00       487.37
   97.24        2979.50           1611          90.00       391.46
   97.27        2979.75           1614          91.00       395.82
   97.30        2980.00           1618          84.00       365.31
   97.32        2980.25           1621          72.00       312.99
   97.34        2980.50           1625          98.00       426.34
   97.37        2980.75           1628          98.00       426.34
   97.40        2981.00           1631          87.00       378.38
   97.43        2981.25           1635          87.00       378.38
   97.46        2981.50           1638         101.00       439.41
   97.48        2981.75           1642          95.00       413.26
   97.51        2982.00           1645         103.00       448.13
   97.54        2982.25           1648          85.00       369.66
   97.57        2982.50           1652          88.00       382.74
   97.60        2982.75           1655          86.00       374.02
   97.63        2983.00           1659          84.00       365.31
   97.66        2983.25           1662          83.00       360.95
   97.68        2983.50           1666          91.00       395.82
   97.72        2983.75           1669          96.00       417.62
   97.75        2984.00           1672          90.00       391.46
HS scan finished at 01:38:07
end
