************************************************************
  HS Scan of (1) Internal mercury lamp
************************************************************
Integration time is 0.2294 seconds per sample
dh270118El Arenosillo 37.1 6.73 2.29pr1000
************************************************************
Dead Time -------------------------  3.2E-08 
Number of Cycles Used -------------  4 
Starting Wavelength (Angstroms) ---  2950 
Final Wavelength (Angstoms) -------  2984 
Wavelength Increment (Angstroms) --  .25 
Filter Wheel #1 Position ---------- (1) Ground quartz diffuser (ND=2.32)
Filter Wheel #2 Position ---------- (1) Neutral Density 0.494



************************************************************
HS scan start time = 01:37:32
Dark Count =  .1 


Time (GMT)  Wavelength (Ang)  Step Number  Raw Counts  Counts/Second

   98.15        2950.00           1211          88.00       383.18
   98.37        2950.25           1215          89.00       387.54
   98.39        2950.50           1218          89.00       387.54
   98.42        2950.75           1222          91.00       396.26
   98.46        2951.00           1225          87.00       378.82
   98.48        2951.25           1228          76.00       330.87
   98.51        2951.50           1232          90.00       391.90
   98.54        2951.75           1235          84.00       365.74
   98.57        2952.00           1238          83.00       361.38
   98.60        2952.25           1242          97.00       422.41
   98.62        2952.50           1245          86.00       374.46
   98.65        2952.75           1249          98.00       426.77
   98.68        2953.00           1252          82.00       357.02
   98.70        2953.25           1255          83.00       361.38
   98.74        2953.50           1259          87.00       378.82
   98.76        2953.75           1262          91.00       396.26
   98.79        2954.00           1265          89.00       387.54
   98.82        2954.25           1269          91.00       396.26
   98.85        2954.50           1272          91.00       396.26
   98.88        2954.75           1276          90.00       391.90
   98.91        2955.00           1279          90.00       391.90
   98.94        2955.25           1282          94.00       409.33
   98.97        2955.50           1286          85.00       370.10
   99.00        2955.75           1289          92.00       400.62
   99.03        2956.00           1293          90.00       391.90
   99.05        2956.25           1296          90.00       391.90
   99.08        2956.50           1299          86.00       374.46
   99.11        2956.75           1303          84.00       365.74
   99.14        2957.00           1306          86.00       374.46
   99.17        2957.25           1309          81.00       352.66
   99.20        2957.50           1313          86.00       374.46
   99.23        2957.75           1316          88.00       383.18
   99.25        2958.00           1320          87.00       378.82
   99.29        2958.25           1323          99.00       431.13
   99.32        2958.50           1326         100.00       435.49
   99.34        2958.75           1330          88.00       383.18
   99.37        2959.00           1333          99.00       431.13
   99.40        2959.25           1336         105.00       457.29
   99.43        2959.50           1340         117.00       509.60
   99.46        2959.75           1343         132.00       574.99
   99.49        2960.00           1347         151.00       657.82
   99.52        2960.25           1350         184.00       801.68
   99.54        2960.50           1353         220.00       958.62
   99.58        2960.75           1357         262.00      1141.72
   99.61        2961.00           1360         320.00      1394.57
   99.63        2961.25           1364         718.00      3129.78
   99.66        2961.50           1367        2187.00      9536.04
   99.69        2961.75           1370        5667.00     24722.69
   99.71        2962.00           1374       14311.00     62508.96
   99.74        2962.25           1377       22101.00     96640.60
   99.77        2962.50           1380       30049.00    131541.70
   99.80        2962.75           1384       39722.00    174123.10
   99.83        2963.00           1387       47214.00    207183.80
   99.86        2963.25           1391       57495.00    252666.30
   99.89        2963.50           1394       64602.00    284185.10
   99.91        2963.75           1397       72244.00    318148.00
   99.95        2964.00           1401       82887.00    365572.10
   99.98        2964.25           1404       90318.00    398769.80
  100.01        2964.50           1408      100626.00    444938.40
  100.03        2964.75           1411      108577.00    480644.20
  100.07        2965.00           1414      115997.00    514039.90
  100.10        2965.25           1418      126538.00    561606.50
  100.12        2965.50           1421      133912.00    594969.00
  100.16        2965.75           1424      140384.00    624309.90
  100.18        2966.00           1428      150706.00    671220.30
  100.21        2966.25           1431      157371.00    701586.60
  100.24        2966.50           1435      163357.00    728910.30
  100.27        2966.75           1438      165591.00    739120.00
  100.30        2967.00           1441      165919.00    740619.60
  100.33        2967.25           1445      165777.00    739970.40
  100.36        2967.50           1448      164784.00    735431.10
  100.39        2967.75           1452      162024.00    722821.50
  100.41        2968.00           1455      157019.00    699981.40
  100.45        2968.25           1458      150476.00    670173.50
  100.47        2968.50           1462      140974.00    626987.50
  100.50        2968.75           1465      133099.00    591287.20
  100.54        2969.00           1469      123546.00    548090.20
  100.56        2969.25           1472      115972.00    513927.20
  100.59        2969.50           1475      108438.00    480019.40
  100.62        2969.75           1479       98651.00    436081.90
  100.65        2970.00           1482       91084.00    402196.00
  100.68        2970.25           1485       83296.00    367397.40
  100.71        2970.50           1489       73650.00    324404.70
  100.74        2970.75           1492       65949.00    290166.10
  100.77        2971.00           1496       56700.00    249144.50
  100.80        2971.25           1499       49345.00    216600.30
  100.83        2971.50           1502       41801.00    183290.30
  100.86        2971.75           1506       31417.00    137556.60
  100.88        2972.00           1509       23772.00    103971.80
  100.92        2972.25           1513       13992.00     61112.86
  100.94        2972.50           1516        7104.00     30998.04
  100.97        2972.75           1519        2380.00     10377.90
  101.00        2973.00           1523         519.00      2262.15
  101.03        2973.25           1526         322.00      1403.29
  101.06        2973.50           1530         236.00      1028.37
  101.08        2973.75           1533         231.00      1006.57
  101.12        2974.00           1536         170.00       740.65
  101.15        2974.25           1540         148.00       644.74
  101.17        2974.50           1543         123.00       535.75
  101.21        2974.75           1547         132.00       574.99
  101.23        2975.00           1550         130.00       566.27
  101.26        2975.25           1553          92.00       400.62
  101.29        2975.50           1557         103.00       448.57
  101.32        2975.75           1560          92.00       400.62
  101.35        2976.00           1564          85.00       370.10
  101.37        2976.25           1567          95.00       413.69
  101.41        2976.50           1570         103.00       448.57
  101.43        2976.75           1574         102.00       444.21
  101.46        2977.00           1577         101.00       439.85
  101.49        2977.25           1581          94.00       409.33
  101.52        2977.50           1584         116.00       505.24
  101.55        2977.75           1587          97.00       422.41
  101.58        2978.00           1591          98.00       426.77
  101.61        2978.25           1594          97.00       422.41
  101.63        2978.50           1598         118.00       513.96
  101.67        2978.75           1601          93.00       404.97
  101.70        2979.00           1604         120.00       522.68
  101.72        2979.25           1608          98.00       426.77
  101.75        2979.50           1611         104.00       452.93
  101.78        2979.75           1614          93.00       404.97
  101.81        2980.00           1618          98.00       426.77
  101.84        2980.25           1621         115.00       500.88
  101.87        2980.50           1625          90.00       391.90
  101.90        2980.75           1628          98.00       426.77
  101.92        2981.00           1631          98.00       426.77
  101.96        2981.25           1635          94.00       409.33
  101.98        2981.50           1638          98.00       426.77
  102.01        2981.75           1642          97.00       422.41
  102.04        2982.00           1645          82.00       357.02
  102.07        2982.25           1648          96.00       418.05
  102.10        2982.50           1652         112.00       487.80
  102.12        2982.75           1655          93.00       404.97
  102.16        2983.00           1659          87.00       378.82
  102.19        2983.25           1662          95.00       413.69
  102.21        2983.50           1666          93.00       404.97
  102.25        2983.75           1669          92.00       400.62
  102.27        2984.00           1672          88.00       383.18
HS scan finished at 01:42:38
end
