************************************************************
  HS Scan of (1) Internal mercury lamp
************************************************************
Integration time is 0.2294 seconds per sample
dh200117El Arenosillo 37.1 6.73 2.25pr1000
************************************************************
Dead Time -------------------------  3.2E-08 
Number of Cycles Used -------------  4 
Starting Wavelength (Angstroms) ---  2950 
Final Wavelength (Angstoms) -------  2984 
Wavelength Increment (Angstroms) --  .25 
Filter Wheel #1 Position ---------- (1) Ground quartz diffuser (ND=2.32)
Filter Wheel #2 Position ---------- (1) Neutral Density 0.494



************************************************************
HS scan start time = 01:34:52
Dark Count =  .1 


Time (GMT)  Wavelength (Ang)  Step Number  Raw Counts  Counts/Second

   95.51        2950.00           1211          50.00       217.53
   95.72        2950.25           1215          56.00       243.68
   95.74        2950.50           1218          56.00       243.68
   95.77        2950.75           1222          62.00       269.84
   95.80        2951.00           1225          55.00       239.32
   95.83        2951.25           1228          52.00       226.24
   95.86        2951.50           1232          54.00       234.96
   95.88        2951.75           1235          52.00       226.24
   95.92        2952.00           1238          52.00       226.24
   95.94        2952.25           1242          55.00       239.32
   95.97        2952.50           1245          57.00       248.04
   95.99        2952.75           1249          52.00       226.24
   96.03        2953.00           1252          52.00       226.24
   96.06        2953.25           1255          49.00       213.17
   96.08        2953.50           1259          58.00       252.40
   96.11        2953.75           1262          51.00       221.88
   96.14        2954.00           1265          54.00       234.96
   96.17        2954.25           1269          50.00       217.53
   96.20        2954.50           1272          56.00       243.68
   96.22        2954.75           1276          54.00       234.96
   96.26        2955.00           1279          55.00       239.32
   96.28        2955.25           1282          58.00       252.40
   96.31        2955.50           1286          59.00       256.76
   96.34        2955.75           1289          53.00       230.60
   96.37        2956.00           1293          49.00       213.17
   96.40        2956.25           1296          47.00       204.45
   96.42        2956.50           1299          57.00       248.04
   96.45        2956.75           1303          54.00       234.96
   96.48        2957.00           1306          52.00       226.24
   96.51        2957.25           1309          57.00       248.04
   96.54        2957.50           1313          55.00       239.32
   96.56        2957.75           1316          50.00       217.53
   96.60        2958.00           1320          54.00       234.96
   96.62        2958.25           1323          61.00       265.48
   96.65        2958.50           1326          59.00       256.76
   96.68        2958.75           1330          59.00       256.76
   96.71        2959.00           1333          59.00       256.76
   96.74        2959.25           1336          61.00       265.48
   96.76        2959.50           1340          76.00       330.87
   96.79        2959.75           1343          69.00       300.35
   96.82        2960.00           1347          87.00       378.82
   96.85        2960.25           1350         102.00       444.21
   96.88        2960.50           1353         112.00       487.80
   96.90        2960.75           1357         159.00       692.69
   96.94        2961.00           1360         203.00       884.51
   96.97        2961.25           1364         670.00      2920.50
   96.99        2961.50           1367        1841.00      8026.91
   97.02        2961.75           1370        3981.00     17363.18
   97.05        2962.00           1374        7624.00     33269.49
   97.08        2962.25           1377       10787.00     47093.15
   97.11        2962.50           1380       13765.00     60119.48
   97.13        2962.75           1384       18004.00     78680.43
   97.16        2963.00           1387       21023.00     91912.92
   97.19        2963.25           1391       25321.00    110770.80
   97.22        2963.50           1394       28679.00    125520.20
   97.25        2963.75           1397       31891.00    139641.40
   97.28        2964.00           1401       36132.00    158306.00
   97.31        2964.25           1404       39245.00    172020.60
   97.34        2964.50           1408       43544.00    190980.10
   97.36        2964.75           1411       46462.00    203862.20
   97.39        2965.00           1414       49865.00    218899.00
   97.42        2965.25           1418       54088.00    237579.20
   97.45        2965.50           1421       56914.00    250092.50
   97.48        2965.75           1424       60431.00    265679.40
   97.50        2966.00           1428       64103.00    281970.00
   97.54        2966.25           1431       66588.00    293004.30
   97.57        2966.50           1435       68460.00    301321.70
   97.59        2966.75           1438       68664.00    302228.40
   97.62        2967.00           1441       68842.00    303019.50
   97.65        2967.25           1445       68736.00    302548.40
   97.68        2967.50           1448       68324.00    300717.30
   97.71        2967.75           1452       67012.00    294887.70
   97.73        2968.00           1455       64470.00    283599.20
   97.77        2968.25           1458       61729.00    271436.00
   97.79        2968.50           1462       57711.00    253623.30
   97.82        2968.75           1465       54599.00    239841.10
   97.85        2969.00           1469       50332.00    220963.60
   97.88        2969.25           1472       47097.00    206667.00
   97.91        2969.50           1475       43545.00    190984.50
   97.93        2969.75           1479       39628.00    173708.80
   97.96        2970.00           1482       36401.00    159490.60
   98.00        2970.25           1485       33384.00    146209.50
   98.03        2970.50           1489       29409.00    128728.40
   98.05        2970.75           1492       26292.00    115034.30
   98.08        2971.00           1496       22243.00     97263.47
   98.12        2971.25           1499       18972.00     82922.02
   98.14        2971.50           1502       15763.00     68865.19
   98.17        2971.75           1506       11478.00     50114.74
   98.20        2972.00           1509        8228.00     35908.29
   98.23        2972.25           1513        4329.00     18881.94
   98.26        2972.50           1516        2016.00      8790.18
   98.28        2972.75           1519         687.00      2994.62
   98.31        2973.00           1523         198.00       862.71
   98.34        2973.25           1526         135.00       588.07
   98.37        2973.50           1530         102.00       444.21
   98.40        2973.75           1533          91.00       396.26
   98.42        2974.00           1536          77.00       335.23
   98.45        2974.25           1540          84.00       365.74
   98.49        2974.50           1543          62.00       269.84
   98.51        2974.75           1547          59.00       256.76
   98.54        2975.00           1550          63.00       274.20
   98.57        2975.25           1553          57.00       248.04
   98.60        2975.50           1557          64.00       278.56
   98.63        2975.75           1560          66.00       287.27
   98.65        2976.00           1564          66.00       287.27
   98.68        2976.25           1567          57.00       248.04
   98.71        2976.50           1570          55.00       239.32
   98.74        2976.75           1574          63.00       274.20
   98.76        2977.00           1577          67.00       291.63
   98.79        2977.25           1581          55.00       239.32
   98.83        2977.50           1584          59.00       256.76
   98.85        2977.75           1587          57.00       248.04
   98.88        2978.00           1591          63.00       274.20
   98.90        2978.25           1594          48.00       208.81
   98.94        2978.50           1598          60.00       261.12
   98.97        2978.75           1601          52.00       226.24
   98.99        2979.00           1604          57.00       248.04
   99.02        2979.25           1608          61.00       265.48
   99.05        2979.50           1611          60.00       261.12
   99.08        2979.75           1614          55.00       239.32
   99.11        2980.00           1618          58.00       252.40
   99.13        2980.25           1621          60.00       261.12
   99.17        2980.50           1625          59.00       256.76
   99.19        2980.75           1628          58.00       252.40
   99.22        2981.00           1631          50.00       217.53
   99.25        2981.25           1635          59.00       256.76
   99.28        2981.50           1638          52.00       226.24
   99.31        2981.75           1642          61.00       265.48
   99.33        2982.00           1645          67.00       291.63
   99.36        2982.25           1648          58.00       252.40
   99.39        2982.50           1652          55.00       239.32
   99.42        2982.75           1655          56.00       243.68
   99.45        2983.00           1659          60.00       261.12
   99.47        2983.25           1662          56.00       243.68
   99.51        2983.50           1666          60.00       261.12
   99.53        2983.75           1669          50.00       217.53
   99.56        2984.00           1672          52.00       226.24
HS scan finished at 01:39:56
end
