************************************************************
  HS Scan of (1) Internal mercury lamp
************************************************************
Integration time is 0.2294 seconds per sample
dh200118El Arenosillo 37.1 6.73 2.39pr1000
************************************************************
Dead Time -------------------------  3.2E-08 
Number of Cycles Used -------------  4 
Starting Wavelength (Angstroms) ---  2950 
Final Wavelength (Angstoms) -------  2984 
Wavelength Increment (Angstroms) --  .25 
Filter Wheel #1 Position ---------- (1) Ground quartz diffuser (ND=2.32)
Filter Wheel #2 Position ---------- (1) Neutral Density 0.494



************************************************************
HS scan start time = 01:35:35
Dark Count =  .1 


Time (GMT)  Wavelength (Ang)  Step Number  Raw Counts  Counts/Second

   96.20        2950.00           1211          86.00       374.46
   96.42        2950.25           1215          88.00       383.18
   96.44        2950.50           1218          79.00       343.94
   96.47        2950.75           1222          78.00       339.59
   96.51        2951.00           1225          81.00       352.66
   96.53        2951.25           1228          78.00       339.59
   96.56        2951.50           1232          94.00       409.33
   96.59        2951.75           1235          96.00       418.05
   96.62        2952.00           1238         108.00       470.36
   96.65        2952.25           1242          89.00       387.54
   96.68        2952.50           1245          90.00       391.90
   96.71        2952.75           1249          87.00       378.82
   96.73        2953.00           1252          95.00       413.69
   96.76        2953.25           1255          89.00       387.54
   96.79        2953.50           1259          81.00       352.66
   96.82        2953.75           1262          83.00       361.38
   96.85        2954.00           1265          82.00       357.02
   96.88        2954.25           1269          89.00       387.54
   96.91        2954.50           1272          76.00       330.87
   96.94        2954.75           1276          83.00       361.38
   96.97        2955.00           1279          85.00       370.10
   97.00        2955.25           1282          81.00       352.66
   97.02        2955.50           1286          84.00       365.74
   97.05        2955.75           1289          81.00       352.66
   97.08        2956.00           1293          83.00       361.38
   97.11        2956.25           1296          84.00       365.74
   97.14        2956.50           1299          90.00       391.90
   97.17        2956.75           1303          84.00       365.74
   97.20        2957.00           1306          89.00       387.54
   97.22        2957.25           1309          83.00       361.38
   97.26        2957.50           1313          82.00       357.02
   97.28        2957.75           1316          91.00       396.26
   97.31        2958.00           1320          87.00       378.82
   97.34        2958.25           1323          91.00       396.26
   97.37        2958.50           1326          87.00       378.82
   97.40        2958.75           1330         100.00       435.49
   97.43        2959.00           1333         100.00       435.49
   97.46        2959.25           1336         100.00       435.49
   97.49        2959.50           1340         142.00       618.58
   97.51        2959.75           1343         135.00       588.07
   97.55        2960.00           1347         175.00       762.44
   97.58        2960.25           1350         190.00       827.83
   97.60        2960.50           1353         242.00      1054.53
   97.63        2960.75           1357         270.00      1176.59
   97.65        2961.00           1360         400.00      1743.34
   97.68        2961.25           1364        1082.00      4716.93
   97.71        2961.50           1367        3188.00     13902.87
   97.74        2961.75           1370        7696.00     33584.03
   97.77        2962.00           1374       17495.00     76450.53
   97.80        2962.25           1377       25216.00    110309.80
   97.83        2962.50           1380       33659.00    147419.60
   97.86        2962.75           1384       44237.00    194038.50
   97.89        2963.00           1387       52081.00    228698.50
   97.92        2963.25           1391       63075.00    277407.70
   97.95        2963.50           1394       70759.00    311542.50
   97.97        2963.75           1397       78260.00    344936.90
   98.00        2964.00           1401       89286.00    394155.10
   98.04        2964.25           1404       96429.00    426123.80
   98.07        2964.50           1408      107232.00    474598.40
   98.09        2964.75           1411      115798.00    513143.30
   98.13        2965.00           1414      123827.00    549359.10
   98.16        2965.25           1418      134701.00    598543.00
   98.18        2965.50           1421      142241.00    632738.90
   98.22        2965.75           1424      150154.00    668708.10
   98.25        2966.00           1428      160067.00    713886.80
   98.27        2966.25           1431      166849.00    744872.20
   98.30        2966.50           1435      172496.00    770719.60
   98.33        2966.75           1438      174352.00    779224.30
   98.36        2967.00           1441      174799.00    781273.30
   98.39        2967.25           1445      174866.00    781580.50
   98.42        2967.50           1448      173977.00    777505.60
   98.45        2967.75           1452      171413.00    765759.10
   98.47        2968.00           1455      165668.00    739472.00
   98.51        2968.25           1458      158535.00    706896.00
   98.53        2968.50           1462      148388.00    660673.30
   98.56        2968.75           1465      140868.00    626506.40
   98.59        2969.00           1469      130445.00    579274.10
   98.62        2969.25           1472      122879.00    545078.60
   98.65        2969.50           1475      114969.00    509408.80
   98.68        2969.75           1479      105581.00    467180.30
   98.71        2970.00           1482       97837.00    432433.20
   98.74        2970.25           1485       90056.00    397598.10
   98.77        2970.50           1489       80070.00    353005.70
   98.80        2970.75           1492       72722.00    320274.80
   98.83        2971.00           1496       62437.00    274576.80
   98.86        2971.25           1499       53983.00    237114.50
   98.89        2971.50           1502       45670.00    200364.70
   98.92        2971.75           1506       35334.00    154792.30
   98.95        2972.00           1509       27689.00    121170.30
   98.97        2972.25           1513       17693.00     77317.93
   99.00        2972.50           1516       11176.00     48794.09
   99.03        2972.75           1519        5562.00     24264.26
   99.05        2973.00           1523        1304.00      5684.99
   99.09        2973.25           1526         442.00      1926.45
   99.11        2973.50           1530         256.00      1115.56
   99.14        2973.75           1533         218.00       949.90
   99.17        2974.00           1536         167.00       727.57
   99.20        2974.25           1540         169.00       736.29
   99.23        2974.50           1543         185.00       806.04
   99.26        2974.75           1547         110.00       479.08
   99.29        2975.00           1550         104.00       452.93
   99.31        2975.25           1553          97.00       422.41
   99.34        2975.50           1557          98.00       426.77
   99.37        2975.75           1560          93.00       404.97
   99.40        2976.00           1564          81.00       352.66
   99.43        2976.25           1567          99.00       431.13
   99.46        2976.50           1570          89.00       387.54
   99.49        2976.75           1574          92.00       400.62
   99.51        2977.00           1577          97.00       422.41
   99.55        2977.25           1581          90.00       391.90
   99.58        2977.50           1584          99.00       431.13
   99.60        2977.75           1587          91.00       396.26
   99.63        2978.00           1591          97.00       422.41
   99.66        2978.25           1594          92.00       400.62
   99.69        2978.50           1598          98.00       426.77
   99.72        2978.75           1601          95.00       413.69
   99.75        2979.00           1604          90.00       391.90
   99.78        2979.25           1608          95.00       413.69
   99.80        2979.50           1611          91.00       396.26
   99.84        2979.75           1614          85.00       370.10
   99.86        2980.00           1618         118.00       513.96
   99.89        2980.25           1621          97.00       422.41
   99.93        2980.50           1625         107.00       466.01
   99.95        2980.75           1628          96.00       418.05
   99.98        2981.00           1631          90.00       391.90
  100.01        2981.25           1635          99.00       431.13
  100.04        2981.50           1638          87.00       378.82
  100.07        2981.75           1642          88.00       383.18
  100.09        2982.00           1645          95.00       413.69
  100.13        2982.25           1648          92.00       400.62
  100.15        2982.50           1652          92.00       400.62
  100.18        2982.75           1655         100.00       435.49
  100.21        2983.00           1659          96.00       418.05
  100.24        2983.25           1662          88.00       383.18
  100.27        2983.50           1666          96.00       418.05
  100.30        2983.75           1669          93.00       404.97
  100.33        2984.00           1672          93.00       404.97
HS scan finished at 01:40:42
end
