************************************************************
  HS Scan of (1) Internal mercury lamp
************************************************************
Integration time is 0.2294 seconds per sample
dh270117El Arenosillo 37.1 6.73 2.54pr1000
************************************************************
Dead Time -------------------------  3.2E-08 
Number of Cycles Used -------------  4 
Starting Wavelength (Angstroms) ---  2950 
Final Wavelength (Angstoms) -------  2984 
Wavelength Increment (Angstroms) --  .25 
Filter Wheel #1 Position ---------- (1) Ground quartz diffuser (ND=2.32)
Filter Wheel #2 Position ---------- (1) Neutral Density 0.494



************************************************************
HS scan start time = 01:35:24
Dark Count =  .1 


Time (GMT)  Wavelength (Ang)  Step Number  Raw Counts  Counts/Second

   96.05        2950.00           1211          45.00       195.73
   96.26        2950.25           1215          40.00       173.93
   96.28        2950.50           1218          46.00       200.09
   96.31        2950.75           1222          45.00       195.73
   96.35        2951.00           1225          54.00       234.96
   96.37        2951.25           1228          46.00       200.09
   96.40        2951.50           1232          46.00       200.09
   96.43        2951.75           1235          41.00       178.29
   96.45        2952.00           1238          48.00       208.81
   96.48        2952.25           1242          46.00       200.09
   96.51        2952.50           1245          41.00       178.29
   96.54        2952.75           1249          42.00       182.65
   96.57        2953.00           1252          44.00       191.37
   96.59        2953.25           1255          45.00       195.73
   96.62        2953.50           1259          42.00       182.65
   96.65        2953.75           1262          47.00       204.45
   96.68        2954.00           1265          44.00       191.37
   96.71        2954.25           1269          41.00       178.29
   96.73        2954.50           1272          47.00       204.45
   96.77        2954.75           1276          50.00       217.53
   96.79        2955.00           1279          50.00       217.53
   96.82        2955.25           1282          44.00       191.37
   96.84        2955.50           1286          44.00       191.37
   96.88        2955.75           1289          47.00       204.45
   96.91        2956.00           1293          44.00       191.37
   96.93        2956.25           1296          45.00       195.73
   96.96        2956.50           1299          44.00       191.37
   96.99        2956.75           1303          45.00       195.73
   97.02        2957.00           1306          44.00       191.37
   97.05        2957.25           1309          45.00       195.73
   97.07        2957.50           1313          45.00       195.73
   97.11        2957.75           1316          44.00       191.37
   97.13        2958.00           1320          43.00       187.01
   97.16        2958.25           1323          48.00       208.81
   97.19        2958.50           1326          54.00       234.96
   97.22        2958.75           1330          56.00       243.68
   97.25        2959.00           1333          50.00       217.53
   97.28        2959.25           1336          53.00       230.60
   97.31        2959.50           1340          61.00       265.48
   97.34        2959.75           1343          70.00       304.71
   97.36        2960.00           1347          77.00       335.23
   97.39        2960.25           1350          86.00       374.46
   97.42        2960.50           1353         122.00       531.40
   97.45        2960.75           1357         127.00       553.19
   97.48        2961.00           1360         159.00       692.69
   97.50        2961.25           1364         533.00      2323.19
   97.54        2961.50           1367        1417.00      6177.77
   97.56        2961.75           1370        3300.00     14391.54
   97.59        2962.00           1374        6994.00     30517.58
   97.62        2962.25           1377        9963.00     43490.74
   97.65        2962.50           1380       13020.00     56859.69
   97.68        2962.75           1384       17333.00     75740.90
   97.70        2963.00           1387       20417.00     89255.88
   97.73        2963.25           1391       24113.00    105468.30
   97.76        2963.50           1394       27277.00    119360.50
   97.79        2963.75           1397       30397.00    133071.60
   97.82        2964.00           1401       34305.00    150262.60
   97.85        2964.25           1404       37408.00    163926.10
   97.88        2964.50           1408       41343.00    181270.30
   97.91        2964.75           1411       44340.00    194493.10
   97.94        2965.00           1414       47259.00    207382.60
   97.97        2965.25           1418       51581.00    226486.90
   98.00        2965.50           1421       54362.00    238792.00
   98.03        2965.75           1424       57565.00    252976.40
   98.06        2966.00           1428       60963.00    268038.50
   98.08        2966.25           1431       63551.00    279520.00
   98.11        2966.50           1435       65521.00    288265.50
   98.13        2966.75           1438       65985.00    290326.00
   98.16        2967.00           1441       66005.00    290414.90
   98.19        2967.25           1445       66345.00    291924.90
   98.22        2967.50           1448       65483.00    288096.70
   98.25        2967.75           1452       64424.00    283394.90
   98.27        2968.00           1455       62796.00    276169.60
   98.31        2968.25           1458       60141.00    264393.60
   98.33        2968.50           1462       56023.00    246146.10
   98.36        2968.75           1465       52929.00    232450.20
   98.39        2969.00           1469       48568.00    213166.20
   98.42        2969.25           1472       45541.00    199795.10
   98.45        2969.50           1475       42304.00    185509.10
   98.48        2969.75           1479       38065.00    166820.60
   98.50        2970.00           1482       35137.00    153925.00
   98.54        2970.25           1485       32382.00    141801.10
   98.56        2970.50           1489       28589.00    125124.70
   98.59        2970.75           1492       25758.00    112689.40
   98.62        2971.00           1496       21613.00     94500.26
   98.65        2971.25           1499       18742.00     81914.09
   98.68        2971.50           1502       15576.00     68046.45
   98.70        2971.75           1506       11525.00     50320.29
   98.73        2972.00           1509        8492.00     37061.81
   98.76        2972.25           1513        4363.00     19030.33
   98.79        2972.50           1516        2131.00      9291.78
   98.82        2972.75           1519         737.00      3212.62
   98.85        2973.00           1523         187.00       814.76
   98.88        2973.25           1526         123.00       535.75
   98.90        2973.50           1530          98.00       426.77
   98.93        2973.75           1533          82.00       357.02
   98.96        2974.00           1536          69.00       300.35
   98.99        2974.25           1540          65.00       282.91
   99.02        2974.50           1543          58.00       252.40
   99.04        2974.75           1547          56.00       243.68
   99.07        2975.00           1550          51.00       221.88
   99.10        2975.25           1553          57.00       248.04
   99.13        2975.50           1557          50.00       217.53
   99.16        2975.75           1560          52.00       226.24
   99.19        2976.00           1564          47.00       204.45
   99.22        2976.25           1567          49.00       213.17
   99.25        2976.50           1570          47.00       204.45
   99.27        2976.75           1574          56.00       243.68
   99.30        2977.00           1577          51.00       221.88
   99.33        2977.25           1581          50.00       217.53
   99.36        2977.50           1584          45.00       195.73
   99.39        2977.75           1587          50.00       217.53
   99.42        2978.00           1591          46.00       200.09
   99.45        2978.25           1594          54.00       234.96
   99.47        2978.50           1598          52.00       226.24
   99.50        2978.75           1601          52.00       226.24
   99.53        2979.00           1604          46.00       200.09
   99.56        2979.25           1608          49.00       213.17
   99.59        2979.50           1611          51.00       221.88
   99.61        2979.75           1614          45.00       195.73
   99.65        2980.00           1618          49.00       213.17
   99.67        2980.25           1621          47.00       204.45
   99.70        2980.50           1625          55.00       239.32
   99.73        2980.75           1628          48.00       208.81
   99.76        2981.00           1631          48.00       208.81
   99.79        2981.25           1635          49.00       213.17
   99.81        2981.50           1638          54.00       234.96
   99.84        2981.75           1642          46.00       200.09
   99.87        2982.00           1645          49.00       213.17
   99.90        2982.25           1648          47.00       204.45
   99.93        2982.50           1652          46.00       200.09
   99.96        2982.75           1655          47.00       204.45
   99.99        2983.00           1659          52.00       226.24
  100.01        2983.25           1662          47.00       204.45
  100.04        2983.50           1666          51.00       221.88
  100.07        2983.75           1669          45.00       195.73
  100.10        2984.00           1672          47.00       204.45
HS scan finished at 01:40:28
end
