************************************************************
  HS Scan of (1) Internal mercury lamp
************************************************************
Integration time is 0.2294 seconds per sample
dh030218El Arenosillo 37.1 6.73 2.19pr1000
************************************************************
Dead Time -------------------------  3.2E-08 
Number of Cycles Used -------------  4 
Starting Wavelength (Angstroms) ---  2950 
Final Wavelength (Angstoms) -------  2984 
Wavelength Increment (Angstroms) --  .25 
Filter Wheel #1 Position ---------- (1) Ground quartz diffuser (ND=2.32)
Filter Wheel #2 Position ---------- (1) Neutral Density 0.494



************************************************************
HS scan start time = 01:38:56
Dark Count =  .2 


Time (GMT)  Wavelength (Ang)  Step Number  Raw Counts  Counts/Second

   99.57        2950.00           1211          92.00       400.18
   99.78        2950.25           1215          84.00       365.31
   99.81        2950.50           1218          89.00       387.10
   99.83        2950.75           1222          87.00       378.38
   99.87        2951.00           1225         103.00       448.13
   99.90        2951.25           1228          86.00       374.02
   99.92        2951.50           1232          88.00       382.74
   99.96        2951.75           1235          88.00       382.74
   99.98        2952.00           1238          85.00       369.66
  100.01        2952.25           1242          87.00       378.38
  100.04        2952.50           1245          90.00       391.46
  100.07        2952.75           1249          89.00       387.10
  100.10        2953.00           1252          81.00       352.23
  100.12        2953.25           1255         113.00       491.73
  100.16        2953.50           1259          87.00       378.38
  100.18        2953.75           1262          86.00       374.02
  100.21        2954.00           1265          92.00       400.18
  100.24        2954.25           1269          86.00       374.02
  100.27        2954.50           1272          88.00       382.74
  100.30        2954.75           1276          79.00       343.51
  100.33        2955.00           1279          86.00       374.02
  100.36        2955.25           1282          77.00       334.79
  100.39        2955.50           1286          96.00       417.62
  100.41        2955.75           1289          92.00       400.18
  100.45        2956.00           1293          88.00       382.74
  100.47        2956.25           1296          79.00       343.51
  100.50        2956.50           1299          96.00       417.62
  100.53        2956.75           1303          80.00       347.87
  100.56        2957.00           1306          82.00       356.59
  100.59        2957.25           1309          86.00       374.02
  100.62        2957.50           1313          83.00       360.95
  100.65        2957.75           1316          95.00       413.26
  100.67        2958.00           1320          88.00       382.74
  100.70        2958.25           1323          93.00       404.54
  100.73        2958.50           1326          86.00       374.02
  100.76        2958.75           1330          88.00       382.74
  100.79        2959.00           1333          88.00       382.74
  100.82        2959.25           1336         114.00       496.08
  100.85        2959.50           1340         110.00       478.65
  100.87        2959.75           1343         143.00       622.51
  100.90        2960.00           1347         137.00       596.35
  100.94        2960.25           1350         163.00       709.69
  100.96        2960.50           1353         192.00       836.12
  100.99        2960.75           1357         217.00       945.10
  101.02        2961.00           1360         262.00      1141.28
  101.05        2961.25           1364         455.00      1982.69
  101.08        2961.50           1367        1341.00      5845.91
  101.11        2961.75           1370        3371.00     14700.90
  101.14        2962.00           1374        9714.00     42401.87
  101.16        2962.25           1377       16399.00     71649.71
  101.19        2962.50           1380       23288.00    101847.50
  101.22        2962.75           1384       32361.00    141708.30
  101.25        2963.00           1387       38907.00    170530.50
  101.28        2963.25           1391       48618.00    213386.80
  101.31        2963.50           1394       54879.00    241080.30
  101.34        2963.75           1397       61927.00    272313.80
  101.37        2964.00           1401       71665.00    315571.80
  101.40        2964.25           1404       77865.00    343176.10
  101.43        2964.50           1408       86681.00    382512.30
  101.46        2964.75           1411       93935.00    414954.00
  101.49        2965.00           1414      100826.00    445835.10
  101.52        2965.25           1418      109592.00    485207.80
  101.55        2965.50           1421      116807.00    517689.40
  101.57        2965.75           1424      123303.00    546992.50
  101.61        2966.00           1428      132370.00    587986.10
  101.63        2966.25           1431      138998.00    618021.30
  101.66        2966.50           1435      145949.00    649583.00
  101.69        2966.75           1438      149207.00    664398.60
  101.72        2967.00           1441      150043.00    668202.50
  101.75        2967.25           1445      150174.00    668798.60
  101.78        2967.50           1448      150417.00    669904.50
  101.81        2967.75           1452      148987.00    663397.60
  101.83        2968.00           1455      145776.00    648796.60
  101.86        2968.25           1458      140666.00    625589.10
  101.89        2968.50           1462      132497.00    588561.00
  101.92        2968.75           1465      125733.00    557968.30
  101.95        2969.00           1469      116843.00    517851.70
  101.98        2969.25           1472      109786.00    486080.30
  102.01        2969.50           1475      102542.00    453534.70
  102.03        2969.75           1479       93775.00    414237.60
  102.07        2970.00           1482       87294.00    385251.20
  102.10        2970.25           1485       80303.00    354044.30
  102.12        2970.50           1489       71703.00    315740.80
  102.15        2970.75           1492       65116.00    286466.70
  102.19        2971.00           1496       56382.00    247735.60
  102.21        2971.25           1499       49145.00    215715.90
  102.24        2971.50           1502       42140.00    184785.20
  102.27        2971.75           1506       32899.00    144075.10
  102.30        2972.00           1509       25268.00    110537.70
  102.33        2972.25           1513       16008.00     69937.52
  102.36        2972.50           1516        9651.00     42126.50
  102.39        2972.75           1519        4370.00     19060.44
  102.42        2973.00           1523         878.00      3826.97
  102.45        2973.25           1526         342.00      1490.04
  102.48        2973.50           1530         233.00      1014.85
  102.51        2973.75           1533         208.00       905.87
  102.53        2974.00           1536         164.00       714.05
  102.57        2974.25           1540         167.00       727.13
  102.60        2974.50           1543         170.00       740.21
  102.62        2974.75           1547         108.00       469.93
  102.66        2975.00           1550         129.00       561.47
  102.68        2975.25           1553          94.00       408.90
  102.71        2975.50           1557          96.00       417.62
  102.74        2975.75           1560         105.00       456.85
  102.77        2976.00           1564         112.00       487.37
  102.80        2976.25           1567         104.00       452.49
  102.82        2976.50           1570          96.00       417.62
  102.86        2976.75           1574         104.00       452.49
  102.88        2977.00           1577          92.00       400.18
  102.91        2977.25           1581         100.00       435.05
  102.95        2977.50           1584          96.00       417.62
  102.97        2977.75           1587          89.00       387.10
  103.00        2978.00           1591          94.00       408.90
  103.03        2978.25           1594          89.00       387.10
  103.06        2978.50           1598          92.00       400.18
  103.09        2978.75           1601          89.00       387.10
  103.12        2979.00           1604          96.00       417.62
  103.15        2979.25           1608          88.00       382.74
  103.17        2979.50           1611          99.00       430.69
  103.20        2979.75           1614         114.00       496.08
  103.24        2980.00           1618          91.00       395.82
  103.26        2980.25           1621          98.00       426.34
  103.29        2980.50           1625          93.00       404.54
  103.32        2980.75           1628          95.00       413.26
  103.35        2981.00           1631          97.00       421.98
  103.38        2981.25           1635          90.00       391.46
  103.41        2981.50           1638          81.00       352.23
  103.44        2981.75           1642          88.00       382.74
  103.46        2982.00           1645          93.00       404.54
  103.49        2982.25           1648          92.00       400.18
  103.52        2982.50           1652          88.00       382.74
  103.55        2982.75           1655          91.00       395.82
  103.58        2983.00           1659          99.00       430.69
  103.61        2983.25           1662          92.00       400.18
  103.64        2983.50           1666         114.00       496.08
  103.67        2983.75           1669         101.00       439.41
  103.69        2984.00           1672          85.00       369.66
HS scan finished at 01:44:04
end
