************************************************************
  HS Scan of (1) Internal mercury lamp
************************************************************
Integration time is 0.2294 seconds per sample
dh130218El Arenosillo 37.1 6.73 2.68pr1000
************************************************************
Dead Time -------------------------  3.2E-08 
Number of Cycles Used -------------  4 
Starting Wavelength (Angstroms) ---  2950 
Final Wavelength (Angstoms) -------  2984 
Wavelength Increment (Angstroms) --  .25 
Filter Wheel #1 Position ---------- (1) Ground quartz diffuser (ND=2.32)
Filter Wheel #2 Position ---------- (1) Neutral Density 0.494



************************************************************
HS scan start time = 11:04:22
Dark Count =  .3 


Time (GMT)  Wavelength (Ang)  Step Number  Raw Counts  Counts/Second

  664.99        2950.00           1211          72.00       312.56
  665.21        2950.25           1215          74.00       321.28
  665.23        2950.50           1218          70.00       303.84
  665.26        2950.75           1222          71.00       308.20
  665.30        2951.00           1225          77.00       334.35
  665.32        2951.25           1228          75.00       325.64
  665.35        2951.50           1232          68.00       295.12
  665.38        2951.75           1235          74.00       321.28
  665.41        2952.00           1238          71.00       308.20
  665.44        2952.25           1242          77.00       334.35
  665.46        2952.50           1245          78.00       338.71
  665.50        2952.75           1249          71.00       308.20
  665.52        2953.00           1252          69.00       299.48
  665.55        2953.25           1255          72.00       312.56
  665.58        2953.50           1259          79.00       343.07
  665.61        2953.75           1262          77.00       334.35
  665.64        2954.00           1265          79.00       343.07
  665.67        2954.25           1269          78.00       338.71
  665.70        2954.50           1272          68.00       295.12
  665.72        2954.75           1276          70.00       303.84
  665.75        2955.00           1279          78.00       338.71
  665.78        2955.25           1282          68.00       295.12
  665.81        2955.50           1286          66.00       286.40
  665.84        2955.75           1289          77.00       334.35
  665.87        2956.00           1293          77.00       334.35
  665.90        2956.25           1296          74.00       321.28
  665.92        2956.50           1299          75.00       325.64
  665.96        2956.75           1303          77.00       334.35
  665.99        2957.00           1306          75.00       325.64
  666.01        2957.25           1309          76.00       329.99
  666.04        2957.50           1313          74.00       321.28
  666.07        2957.75           1316          71.00       308.20
  666.10        2958.00           1320          78.00       338.71
  666.13        2958.25           1323          76.00       329.99
  666.16        2958.50           1326          80.00       347.43
  666.19        2958.75           1330          74.00       321.28
  666.22        2959.00           1333          88.00       382.31
  666.25        2959.25           1336          87.00       377.95
  666.28        2959.50           1340         134.00       582.84
  666.30        2959.75           1343         156.00       678.74
  666.33        2960.00           1347         138.00       600.27
  666.37        2960.25           1350         168.00       731.05
  666.39        2960.50           1353         219.00       953.39
  666.42        2960.75           1357         283.00      1232.39
  666.45        2961.00           1360         348.00      1515.77
  666.48        2961.25           1364         865.00      3769.85
  666.51        2961.50           1367        2551.00     11122.96
  666.54        2961.75           1370        6290.00     27442.14
  666.57        2962.00           1374       15832.00     69166.43
  666.60        2962.25           1377       23865.00    104379.00
  666.62        2962.50           1380       31550.00    138140.70
  666.66        2962.75           1384       41685.00    182777.80
  666.68        2963.00           1387       50057.00    219746.90
  666.71        2963.25           1391       59921.00    263417.30
  666.74        2963.50           1394       66905.00    294411.50
  666.77        2963.75           1397       75227.00    331424.50
  666.80        2964.00           1401       85445.00    376991.00
  666.83        2964.25           1404       92945.00    410522.00
  666.86        2964.50           1408      103672.00    458606.60
  666.89        2964.75           1411      111798.00    495131.50
  666.92        2965.00           1414      119657.00    530538.30
  666.95        2965.25           1418      130331.00    578757.50
  666.98        2965.50           1421      137737.00    612302.00
  667.00        2965.75           1424      145080.00    645633.30
  667.04        2966.00           1428      155444.00    692800.00
  667.07        2966.25           1431      161858.00    722062.50
  667.09        2966.50           1435      168210.00    751096.90
  667.12        2966.75           1438      170441.00    761307.60
  667.15        2967.00           1441      170859.00    763221.40
  667.18        2967.25           1445      171098.00    764315.70
  667.21        2967.50           1448      170802.00    762960.30
  667.24        2967.75           1452      168471.00    752291.00
  667.27        2968.00           1455      163769.00    730791.70
  667.29        2968.25           1458      157333.00    701412.50
  667.33        2968.50           1462      147031.00    654501.30
  667.35        2968.75           1465      139450.00    620071.20
  667.38        2969.00           1469      129318.00    574174.90
  667.41        2969.25           1472      122626.00    543935.60
  667.44        2969.50           1475      114488.00    507241.60
  667.47        2969.75           1479      104724.00    463330.30
  667.50        2970.00           1482       97496.00    430904.00
  667.53        2970.25           1485       90590.00    399985.50
  667.56        2970.50           1489       80063.00    352973.70
  667.59        2970.75           1492       73187.00    322343.20
  667.62        2971.00           1496       62506.00    274882.10
  667.65        2971.25           1499       54635.00    239999.60
  667.68        2971.50           1502       47142.00    206864.90
  667.71        2971.75           1506       36380.00    159397.30
  667.74        2972.00           1509       28677.00    125510.50
  667.77        2972.25           1513       18668.00     81588.94
  667.80        2972.50           1516       12148.00     53044.19
  667.83        2972.75           1519        6512.00     28411.61
  667.85        2973.00           1523        1517.00      6612.99
  667.88        2973.25           1526         496.00      2161.00
  667.91        2973.50           1530         260.00      1132.12
  667.94        2973.75           1533         209.00       909.79
  667.97        2974.00           1536         148.00       643.87
  668.00        2974.25           1540         147.00       639.51
  668.03        2974.50           1543         125.00       543.60
  668.05        2974.75           1547          99.00       430.26
  668.08        2975.00           1550          88.00       382.31
  668.12        2975.25           1553          87.00       377.95
  668.14        2975.50           1557          85.00       369.23
  668.17        2975.75           1560          83.00       360.51
  668.20        2976.00           1564          77.00       334.35
  668.23        2976.25           1567          85.00       369.23
  668.26        2976.50           1570          93.00       404.10
  668.29        2976.75           1574         104.00       452.06
  668.32        2977.00           1577          86.00       373.59
  668.34        2977.25           1581          80.00       347.43
  668.37        2977.50           1584          86.00       373.59
  668.40        2977.75           1587          86.00       373.59
  668.43        2978.00           1591          81.00       351.79
  668.46        2978.25           1594          86.00       373.59
  668.49        2978.50           1598          92.00       399.74
  668.52        2978.75           1601          85.00       369.23
  668.54        2979.00           1604          82.00       356.15
  668.58        2979.25           1608          79.00       343.07
  668.61        2979.50           1611          75.00       325.64
  668.63        2979.75           1614          82.00       356.15
  668.66        2980.00           1618          85.00       369.23
  668.69        2980.25           1621          80.00       347.43
  668.72        2980.50           1625          78.00       338.71
  668.74        2980.75           1628          75.00       325.64
  668.78        2981.00           1631          81.00       351.79
  668.81        2981.25           1635          82.00       356.15
  668.83        2981.50           1638          80.00       347.43
  668.87        2981.75           1642          87.00       377.95
  668.89        2982.00           1645          79.00       343.07
  668.92        2982.25           1648          78.00       338.71
  668.95        2982.50           1652          84.00       364.87
  668.98        2982.75           1655          78.00       338.71
  669.01        2983.00           1659          72.00       312.56
  669.03        2983.25           1662          81.00       351.79
  669.07        2983.50           1666          77.00       334.35
  669.09        2983.75           1669          84.00       364.87
  669.12        2984.00           1672          78.00       338.71
HS scan finished at 11:09:30
end
