************************************************************
  HS Scan of (1) Internal mercury lamp
************************************************************
Integration time is 0.2294 seconds per sample
dh100218El Arenosillo 37.1 6.73 2.27pr1000
************************************************************
Dead Time -------------------------  3.2E-08 
Number of Cycles Used -------------  4 
Starting Wavelength (Angstroms) ---  2950 
Final Wavelength (Angstoms) -------  2984 
Wavelength Increment (Angstroms) --  .25 
Filter Wheel #1 Position ---------- (1) Ground quartz diffuser (ND=2.32)
Filter Wheel #2 Position ---------- (1) Neutral Density 0.494



************************************************************
HS scan start time = 01:38:58
Dark Count =  .3 


Time (GMT)  Wavelength (Ang)  Step Number  Raw Counts  Counts/Second

   99.59        2950.00           1211          76.00       329.99
   99.80        2950.25           1215          80.00       347.43
   99.83        2950.50           1218          80.00       347.43
   99.86        2950.75           1222          83.00       360.51
   99.89        2951.00           1225          73.00       316.92
   99.92        2951.25           1228          73.00       316.92
   99.95        2951.50           1232          76.00       329.99
   99.97        2951.75           1235          74.00       321.28
  100.01        2952.00           1238          76.00       329.99
  100.03        2952.25           1242          80.00       347.43
  100.06        2952.50           1245          80.00       347.43
  100.09        2952.75           1249          83.00       360.51
  100.12        2953.00           1252          78.00       338.71
  100.15        2953.25           1255          84.00       364.87
  100.18        2953.50           1259          81.00       351.79
  100.21        2953.75           1262          78.00       338.71
  100.24        2954.00           1265          82.00       356.15
  100.26        2954.25           1269          84.00       364.87
  100.29        2954.50           1272          82.00       356.15
  100.32        2954.75           1276          82.00       356.15
  100.35        2955.00           1279          78.00       338.71
  100.38        2955.25           1282          84.00       364.87
  100.41        2955.50           1286          82.00       356.15
  100.44        2955.75           1289         124.00       539.24
  100.47        2956.00           1293          82.00       356.15
  100.49        2956.25           1296          78.00       338.71
  100.53        2956.50           1299          89.00       386.67
  100.55        2956.75           1303          78.00       338.71
  100.58        2957.00           1306          83.00       360.51
  100.61        2957.25           1309          92.00       399.74
  100.64        2957.50           1313          85.00       369.23
  100.67        2957.75           1316          84.00       364.87
  100.70        2958.00           1320          85.00       369.23
  100.73        2958.25           1323          80.00       347.43
  100.76        2958.50           1326          94.00       408.46
  100.78        2958.75           1330          85.00       369.23
  100.81        2959.00           1333         111.00       482.57
  100.84        2959.25           1336         116.00       504.37
  100.86        2959.50           1340         126.00       547.96
  100.89        2959.75           1343         144.00       626.43
  100.92        2960.00           1347         153.00       665.66
  100.95        2960.25           1350         179.00       779.01
  100.98        2960.50           1353         202.00       879.27
  101.00        2960.75           1357         241.00      1049.29
  101.04        2961.00           1360         346.00      1507.05
  101.06        2961.25           1364        1058.00      4611.40
  101.09        2961.50           1367        2890.00     12601.86
  101.13        2961.75           1370        6968.00     30403.15
  101.15        2962.00           1374       15074.00     65847.85
  101.18        2962.25           1377       21107.00     92280.38
  101.21        2962.50           1380       28308.00    123889.10
  101.24        2962.75           1384       37390.00    163845.90
  101.27        2963.00           1387       43769.00    191972.10
  101.29        2963.25           1391       52942.00    232506.80
  101.33        2963.50           1394       60987.00    268144.10
  101.36        2963.75           1397       67961.00    299103.30
  101.39        2964.00           1401       77533.00    341696.30
  101.41        2964.25           1404       84525.00    372882.80
  101.45        2964.50           1408       93572.00    413328.50
  101.47        2964.75           1411      100756.00    445520.70
  101.50        2965.00           1414      107675.00    476588.60
  101.53        2965.25           1418      116873.00    517986.40
  101.56        2965.50           1421      123062.00    545903.80
  101.59        2965.75           1424      130234.00    578318.60
  101.62        2966.00           1428      138957.00    617834.90
  101.65        2966.25           1431      144695.00    643883.90
  101.68        2966.50           1435      150116.00    668534.20
  101.70        2966.75           1438      150427.00    669949.60
  101.73        2967.00           1441      151012.00    672612.30
  101.76        2967.25           1445      150930.00    672239.00
  101.79        2967.50           1448      149820.00    667187.20
  101.82        2967.75           1452      147578.00    656988.60
  101.85        2968.00           1455      142816.00    635348.90
  101.88        2968.25           1458      136307.00    605819.40
  101.91        2968.50           1462      127026.00    563811.20
  101.93        2968.75           1465      120643.00    534986.30
  101.97        2969.00           1469      111305.00    492913.10
  101.99        2969.25           1472      104045.00    460281.30
  102.02        2969.50           1475       97851.00    432495.10
  102.05        2969.75           1479       88975.00    392763.90
  102.08        2970.00           1482       82830.00    365316.80
  102.11        2970.25           1485       76680.00    337895.90
  102.14        2970.50           1489       68341.00    300792.00
  102.17        2970.75           1492       61153.00    268880.30
  102.20        2971.00           1496       51658.00    226826.60
  102.23        2971.25           1499       45138.00    198014.90
  102.26        2971.50           1502       38158.00    167229.50
  102.29        2971.75           1506       28731.00    125747.80
  102.32        2972.00           1509       22096.00     96617.79
  102.34        2972.25           1513       12936.00     56491.31
  102.38        2972.50           1516        7095.00     30957.86
  102.40        2972.75           1519        2601.00     11341.08
  102.43        2973.00           1523         517.00      2252.56
  102.46        2973.25           1526         275.00      1197.52
  102.49        2973.50           1530         208.00       905.43
  102.52        2973.75           1533         172.00       748.49
  102.54        2974.00           1536         152.00       661.30
  102.58        2974.25           1540         145.00       630.79
  102.61        2974.50           1543         110.00       478.21
  102.63        2974.75           1547         113.00       491.29
  102.66        2975.00           1550          98.00       425.90
  102.69        2975.25           1553          93.00       404.10
  102.72        2975.50           1557          95.00       412.82
  102.75        2975.75           1560          93.00       404.10
  102.78        2976.00           1564          90.00       391.02
  102.81        2976.25           1567          77.00       334.35
  102.83        2976.50           1570          89.00       386.67
  102.86        2976.75           1574          87.00       377.95
  102.89        2977.00           1577          92.00       399.74
  102.92        2977.25           1581          83.00       360.51
  102.95        2977.50           1584          90.00       391.02
  102.98        2977.75           1587          88.00       382.31
  103.01        2978.00           1591          88.00       382.31
  103.03        2978.25           1594          87.00       377.95
  103.06        2978.50           1598          90.00       391.02
  103.09        2978.75           1601          87.00       377.95
  103.12        2979.00           1604          82.00       356.15
  103.15        2979.25           1608          92.00       399.74
  103.18        2979.50           1611          87.00       377.95
  103.21        2979.75           1614          89.00       386.67
  103.23        2980.00           1618          95.00       412.82
  103.26        2980.25           1621          82.00       356.15
  103.30        2980.50           1625          90.00       391.02
  103.32        2980.75           1628          90.00       391.02
  103.35        2981.00           1631          81.00       351.79
  103.37        2981.25           1635          86.00       373.59
  103.40        2981.50           1638          87.00       377.95
  103.43        2981.75           1642         107.00       465.13
  103.45        2982.00           1645          88.00       382.31
  103.49        2982.25           1648          84.00       364.87
  103.51        2982.50           1652          83.00       360.51
  103.54        2982.75           1655          92.00       399.74
  103.57        2983.00           1659          85.00       369.23
  103.60        2983.25           1662          81.00       351.79
  103.63        2983.50           1666          81.00       351.79
  103.65        2983.75           1669          84.00       364.87
  103.68        2984.00           1672          82.00       356.15
HS scan finished at 01:44:03
end
