************************************************************
  HS Scan of (1) Internal mercury lamp
************************************************************
Integration time is 0.2294 seconds per sample
dh100217El Arenosillo 37.1 6.73 2.49pr1000
************************************************************
Dead Time -------------------------  3.2E-08 
Number of Cycles Used -------------  4 
Starting Wavelength (Angstroms) ---  2950 
Final Wavelength (Angstoms) -------  2984 
Wavelength Increment (Angstroms) --  .25 
Filter Wheel #1 Position ---------- (1) Ground quartz diffuser (ND=2.32)
Filter Wheel #2 Position ---------- (1) Neutral Density 0.494



************************************************************
HS scan start time = 01:36:49
Dark Count =  .4 


Time (GMT)  Wavelength (Ang)  Step Number  Raw Counts  Counts/Second

   97.46        2950.00           1211          46.00       198.78
   97.67        2950.25           1215          43.00       185.70
   97.70        2950.50           1218          43.00       185.70
   97.73        2950.75           1222          43.00       185.70
   97.76        2951.00           1225          42.00       181.34
   97.79        2951.25           1228          49.00       211.86
   97.81        2951.50           1232          52.00       224.94
   97.84        2951.75           1235          43.00       185.70
   97.87        2952.00           1238          49.00       211.86
   97.90        2952.25           1242          46.00       198.78
   97.93        2952.50           1245          46.00       198.78
   97.96        2952.75           1249          42.00       181.34
   97.99        2953.00           1252          51.00       220.58
   98.02        2953.25           1255          43.00       185.70
   98.04        2953.50           1259          46.00       198.78
   98.07        2953.75           1262          45.00       194.42
   98.10        2954.00           1265          42.00       181.34
   98.13        2954.25           1269          41.00       176.98
   98.16        2954.50           1272          54.00       233.65
   98.19        2954.75           1276          45.00       194.42
   98.22        2955.00           1279          55.00       238.01
   98.25        2955.25           1282          50.00       216.22
   98.27        2955.50           1286          43.00       185.70
   98.30        2955.75           1289          46.00       198.78
   98.33        2956.00           1293          48.00       207.50
   98.36        2956.25           1296          52.00       224.94
   98.39        2956.50           1299          47.00       203.14
   98.42        2956.75           1303          44.00       190.06
   98.45        2957.00           1306          52.00       224.94
   98.47        2957.25           1309          41.00       176.98
   98.50        2957.50           1313          48.00       207.50
   98.53        2957.75           1316          52.00       224.94
   98.56        2958.00           1320          43.00       185.70
   98.59        2958.25           1323          57.00       246.73
   98.62        2958.50           1326          53.00       229.30
   98.65        2958.75           1330          48.00       207.50
   98.68        2959.00           1333          47.00       203.14
   98.70        2959.25           1336          50.00       216.22
   98.73        2959.50           1340          58.00       251.09
   98.76        2959.75           1343          67.00       290.33
   98.79        2960.00           1347          71.00       307.76
   98.82        2960.25           1350          86.00       373.15
   98.84        2960.50           1353         109.00       473.42
   98.88        2960.75           1357         129.00       560.60
   98.90        2961.00           1360         145.00       630.35
   98.93        2961.25           1364         197.00       857.04
   98.96        2961.50           1367         579.00      2522.44
   98.99        2961.75           1370        1554.00      6773.92
   99.02        2962.00           1374        4410.00     19234.16
   99.05        2962.25           1377        7250.00     31634.45
   99.08        2962.50           1380       10334.00     45111.28
   99.11        2962.75           1384       14321.00     62551.41
   99.13        2963.00           1387       17118.00     74797.82
   99.16        2963.25           1391       20787.00     90876.80
   99.19        2963.50           1394       23666.00    103505.30
   99.22        2963.75           1397       26416.00    115577.50
   99.25        2964.00           1401       29963.00    131162.30
   99.28        2964.25           1404       32953.00    144311.80
   99.31        2964.50           1408       36897.00    161673.90
   99.34        2964.75           1411       39925.00    175016.70
   99.37        2965.00           1414       42887.00    188079.80
   99.39        2965.25           1418       46947.00    206003.10
   99.43        2965.50           1421       49907.00    219083.30
   99.46        2965.75           1424       52776.00    231771.90
   99.48        2966.00           1428       56543.00    248447.80
   99.51        2966.25           1431       59357.00    260916.60
   99.54        2966.50           1435       61760.00    271572.20
   99.57        2966.75           1438       63225.00    278072.00
   99.60        2967.00           1441       63562.00    279567.50
   99.62        2967.25           1445       63791.00    280583.90
   99.65        2967.50           1448       63545.00    279492.10
   99.68        2967.75           1452       63253.00    278196.20
   99.70        2968.00           1455       61480.00    270330.20
   99.73        2968.25           1458       59387.00    261049.60
   99.76        2968.50           1462       55570.00    244138.80
   99.79        2968.75           1465       52951.00    232546.20
   99.82        2969.00           1469       49245.00    216157.00
   99.84        2969.25           1472       46343.00    203335.30
   99.88        2969.50           1475       43391.00    190303.60
   99.90        2969.75           1479       39499.00    173138.90
   99.93        2970.00           1482       36711.00    160854.60
   99.96        2970.25           1485       33707.00    147629.50
   99.99        2970.50           1489       29906.00    130911.70
  100.02        2970.75           1492       26962.00    117975.50
  100.04        2971.00           1496       23338.00    102066.00
  100.07        2971.25           1499       20548.00     89828.90
  100.11        2971.50           1502       17552.00     76698.91
  100.13        2971.75           1506       13679.00     59741.83
  100.16        2972.00           1509       11027.00     48141.24
  100.18        2972.25           1513        7004.00     30559.95
  100.22        2972.50           1516        4350.00     18972.28
  100.25        2972.75           1519        1938.00      8448.67
  100.27        2973.00           1523         418.00      1820.51
  100.30        2973.25           1526         175.00       761.13
  100.33        2973.50           1530         110.00       477.78
  100.36        2973.75           1533         104.00       451.62
  100.39        2974.00           1536          70.00       303.40
  100.42        2974.25           1540          66.00       285.97
  100.45        2974.50           1543          59.00       255.45
  100.47        2974.75           1547          57.00       246.73
  100.50        2975.00           1550          51.00       220.58
  100.53        2975.25           1553          49.00       211.86
  100.56        2975.50           1557          56.00       242.37
  100.59        2975.75           1560          51.00       220.58
  100.61        2976.00           1564          50.00       216.22
  100.64        2976.25           1567          50.00       216.22
  100.67        2976.50           1570          53.00       229.30
  100.69        2976.75           1574          46.00       198.78
  100.72        2977.00           1577          50.00       216.22
  100.75        2977.25           1581          53.00       229.30
  100.78        2977.50           1584          44.00       190.06
  100.80        2977.75           1587          49.00       211.86
  100.83        2978.00           1591          54.00       233.65
  100.87        2978.25           1594          48.00       207.50
  100.89        2978.50           1598          50.00       216.22
  100.92        2978.75           1601          46.00       198.78
  100.94        2979.00           1604          53.00       229.30
  100.98        2979.25           1608          48.00       207.50
  101.01        2979.50           1611          57.00       246.73
  101.03        2979.75           1614          52.00       224.94
  101.06        2980.00           1618          50.00       216.22
  101.09        2980.25           1621          58.00       251.09
  101.12        2980.50           1625          52.00       224.94
  101.15        2980.75           1628          52.00       224.94
  101.17        2981.00           1631          49.00       211.86
  101.21        2981.25           1635          49.00       211.86
  101.23        2981.50           1638          49.00       211.86
  101.26        2981.75           1642          43.00       185.70
  101.29        2982.00           1645          49.00       211.86
  101.32        2982.25           1648          47.00       203.14
  101.35        2982.50           1652          46.00       198.78
  101.37        2982.75           1655          49.00       211.86
  101.40        2983.00           1659          49.00       211.86
  101.43        2983.25           1662          49.00       211.86
  101.46        2983.50           1666          45.00       194.42
  101.49        2983.75           1669          53.00       229.30
  101.52        2984.00           1672          45.00       194.42
HS scan finished at 01:41:53
end
