************************************************************
  HS Scan of (1) Internal mercury lamp
************************************************************
Integration time is 0.2294 seconds per sample
dh170218El Arenosillo 37.1 6.73 2.47pr1000
************************************************************
Dead Time -------------------------  3.2E-08 
Number of Cycles Used -------------  4 
Starting Wavelength (Angstroms) ---  2950 
Final Wavelength (Angstoms) -------  2984 
Wavelength Increment (Angstroms) --  .25 
Filter Wheel #1 Position ---------- (1) Ground quartz diffuser (ND=2.32)
Filter Wheel #2 Position ---------- (1) Neutral Density 0.494



************************************************************
HS scan start time = 01:38:53
Dark Count =  .3 


Time (GMT)  Wavelength (Ang)  Step Number  Raw Counts  Counts/Second

   99.50        2950.00           1211          79.00       343.07
   99.72        2950.25           1215          78.00       338.71
   99.75        2950.50           1218          77.00       334.35
   99.78        2950.75           1222          75.00       325.64
   99.81        2951.00           1225          75.00       325.64
   99.84        2951.25           1228          83.00       360.51
   99.86        2951.50           1232          72.00       312.56
   99.89        2951.75           1235          73.00       316.92
   99.92        2952.00           1238          75.00       325.64
   99.95        2952.25           1242          78.00       338.71
   99.98        2952.50           1245          81.00       351.79
  100.01        2952.75           1249          80.00       347.43
  100.04        2953.00           1252          86.00       373.59
  100.07        2953.25           1255          80.00       347.43
  100.10        2953.50           1259          79.00       343.07
  100.13        2953.75           1262          74.00       321.28
  100.15        2954.00           1265          83.00       360.51
  100.18        2954.25           1269          68.00       295.12
  100.22        2954.50           1272          79.00       343.07
  100.24        2954.75           1276          83.00       360.51
  100.27        2955.00           1279          81.00       351.79
  100.30        2955.25           1282          78.00       338.71
  100.33        2955.50           1286          72.00       312.56
  100.36        2955.75           1289          85.00       369.23
  100.38        2956.00           1293          85.00       369.23
  100.42        2956.25           1296          79.00       343.07
  100.44        2956.50           1299          78.00       338.71
  100.47        2956.75           1303          76.00       329.99
  100.50        2957.00           1306          82.00       356.15
  100.53        2957.25           1309          74.00       321.28
  100.56        2957.50           1313          76.00       329.99
  100.59        2957.75           1316          74.00       321.28
  100.62        2958.00           1320          85.00       369.23
  100.64        2958.25           1323          77.00       334.35
  100.67        2958.50           1326          77.00       334.35
  100.70        2958.75           1330          87.00       377.95
  100.73        2959.00           1333          95.00       412.82
  100.76        2959.25           1336          92.00       399.74
  100.79        2959.50           1340         106.00       460.77
  100.82        2959.75           1343         130.00       565.40
  100.85        2960.00           1347         142.00       617.71
  100.87        2960.25           1350         161.00       700.54
  100.91        2960.50           1353         229.00       996.98
  100.93        2960.75           1357         254.00      1105.97
  100.96        2961.00           1360         316.00      1376.26
  100.99        2961.25           1364         838.00      3652.13
  101.02        2961.50           1367        2276.00      9923.38
  101.05        2961.75           1370        5616.00     24499.15
  101.07        2962.00           1374       14029.00     61273.91
  101.11        2962.25           1377       21916.00     95828.28
  101.13        2962.50           1380       30131.00    131901.30
  101.16        2962.75           1384       40203.00    176242.70
  101.19        2963.00           1387       47660.00    209153.20
  101.22        2963.25           1391       58071.00    255217.50
  101.25        2963.50           1394       65885.00    289881.00
  101.28        2963.75           1397       73348.00    323059.70
  101.31        2964.00           1401       83877.00    369989.90
  101.34        2964.25           1404       92634.00    409130.10
  101.36        2964.50           1408      103020.00    455679.70
  101.40        2964.75           1411      110679.00    490096.70
  101.43        2965.00           1414      118546.00    525528.00
  101.46        2965.25           1418      128601.00    570932.10
  101.49        2965.50           1421      135657.00    602873.60
  101.52        2965.75           1424      142604.00    634386.20
  101.54        2966.00           1428      152467.00    679236.90
  101.57        2966.25           1431      159064.00    709308.60
  101.60        2966.50           1435      164844.00    735704.50
  101.63        2966.75           1438      167220.00    746568.10
  101.66        2967.00           1441      166892.00    745068.00
  101.69        2967.25           1445      167096.00    746000.90
  101.72        2967.50           1448      166944.00    745305.80
  101.74        2967.75           1452      164326.00    733337.00
  101.78        2968.00           1455      160535.00    716022.10
  101.81        2968.25           1458      154703.00    689422.90
  101.83        2968.50           1462      144627.00    643575.00
  101.86        2968.75           1465      137698.00    612125.20
  101.90        2969.00           1469      126340.00    560710.80
  101.92        2969.25           1472      118569.00    525631.80
  101.95        2969.50           1475      111412.00    493394.60
  101.98        2969.75           1479      101126.00    447180.50
  102.01        2970.00           1482       92712.00    409479.20
  102.04        2970.25           1485       85600.00    377683.20
  102.07        2970.50           1489       75980.00    334777.90
  102.10        2970.75           1492       67765.00    298232.40
  102.13        2971.00           1496       57949.00    254677.00
  102.15        2971.25           1499       50364.00    221104.20
  102.19        2971.50           1502       42556.00    186619.90
  102.22        2971.75           1506       32504.00    142336.90
  102.24        2972.00           1509       25056.00    109606.50
  102.27        2972.25           1513       14872.00     64963.60
  102.30        2972.50           1516        7992.00     34876.31
  102.33        2972.75           1519        3104.00     13535.50
  102.36        2973.00           1523         626.00      2727.79
  102.39        2973.25           1526         364.00      1585.52
  102.42        2973.50           1530         264.00      1149.56
  102.44        2973.75           1533         202.00       879.27
  102.48        2974.00           1536         168.00       731.05
  102.51        2974.25           1540         154.00       670.02
  102.53        2974.50           1543         129.00       561.04
  102.56        2974.75           1547         106.00       460.77
  102.59        2975.00           1550          97.00       421.54
  102.62        2975.25           1553         100.00       434.62
  102.64        2975.50           1557          90.00       391.02
  102.68        2975.75           1560          92.00       399.74
  102.71        2976.00           1564          90.00       391.02
  102.73        2976.25           1567          90.00       391.02
  102.76        2976.50           1570          87.00       377.95
  102.79        2976.75           1574          69.00       299.48
  102.81        2977.00           1577          80.00       347.43
  102.83        2977.25           1581          92.00       399.74
  102.87        2977.50           1584          90.00       391.02
  102.89        2977.75           1587          92.00       399.74
  102.92        2978.00           1591          89.00       386.67
  102.95        2978.25           1594          96.00       417.18
  102.98        2978.50           1598          83.00       360.51
  103.01        2978.75           1601          96.00       417.18
  103.03        2979.00           1604          91.00       395.38
  103.07        2979.25           1608          82.00       356.15
  103.10        2979.50           1611          76.00       329.99
  103.12        2979.75           1614          84.00       364.87
  103.16        2980.00           1618          89.00       386.67
  103.18        2980.25           1621          81.00       351.79
  103.21        2980.50           1625          94.00       408.46
  103.24        2980.75           1628          83.00       360.51
  103.27        2981.00           1631          86.00       373.59
  103.30        2981.25           1635          92.00       399.74
  103.32        2981.50           1638          83.00       360.51
  103.36        2981.75           1642          84.00       364.87
  103.39        2982.00           1645          82.00       356.15
  103.41        2982.25           1648          82.00       356.15
  103.44        2982.50           1652          81.00       351.79
  103.47        2982.75           1655          77.00       334.35
  103.50        2983.00           1659          85.00       369.23
  103.53        2983.25           1662          77.00       334.35
  103.56        2983.50           1666          79.00       343.07
  103.59        2983.75           1669          84.00       364.87
  103.61        2984.00           1672          79.00       343.07
HS scan finished at 01:43:59
end
