************************************************************
  HS Scan of (1) Internal mercury lamp
************************************************************
Integration time is 0.2294 seconds per sample
dh170217El Arenosillo 37.1 6.73 2.41pr1000
************************************************************
Dead Time -------------------------  3.2E-08 
Number of Cycles Used -------------  4 
Starting Wavelength (Angstroms) ---  2950 
Final Wavelength (Angstoms) -------  2984 
Wavelength Increment (Angstroms) --  .25 
Filter Wheel #1 Position ---------- (1) Ground quartz diffuser (ND=2.32)
Filter Wheel #2 Position ---------- (1) Neutral Density 0.494



************************************************************
HS scan start time = 01:35:23
Dark Count =  .3 


Time (GMT)  Wavelength (Ang)  Step Number  Raw Counts  Counts/Second

   96.03        2950.00           1211          46.00       199.22
   96.24        2950.25           1215          47.00       203.58
   96.27        2950.50           1218          46.00       199.22
   96.30        2950.75           1222          45.00       194.86
   96.33        2951.00           1225          51.00       221.01
   96.36        2951.25           1228          48.00       207.94
   96.39        2951.50           1232          54.00       234.09
   96.41        2951.75           1235          42.00       181.78
   96.45        2952.00           1238          45.00       194.86
   96.47        2952.25           1242          44.00       190.50
   96.50        2952.50           1245          46.00       199.22
   96.53        2952.75           1249          46.00       199.22
   96.56        2953.00           1252          43.00       186.14
   96.59        2953.25           1255          48.00       207.94
   96.62        2953.50           1259          52.00       225.37
   96.64        2953.75           1262          49.00       212.29
   96.67        2954.00           1265          43.00       186.14
   96.70        2954.25           1269          51.00       221.01
   96.73        2954.50           1272          45.00       194.86
   96.75        2954.75           1276          42.00       181.78
   96.78        2955.00           1279          56.00       242.81
   96.82        2955.25           1282          44.00       190.50
   96.84        2955.50           1286          54.00       234.09
   96.87        2955.75           1289          44.00       190.50
   96.90        2956.00           1293          47.00       203.58
   96.93        2956.25           1296          57.00       247.17
   96.96        2956.50           1299          48.00       207.94
   96.98        2956.75           1303          43.00       186.14
   97.01        2957.00           1306          51.00       221.01
   97.05        2957.25           1309          43.00       186.14
   97.07        2957.50           1313          49.00       212.29
   97.10        2957.75           1316          52.00       225.37
   97.13        2958.00           1320          43.00       186.14
   97.16        2958.25           1323          54.00       234.09
   97.19        2958.50           1326          49.00       212.29
   97.21        2958.75           1330          57.00       247.17
   97.24        2959.00           1333          57.00       247.17
   97.27        2959.25           1336          51.00       221.01
   97.30        2959.50           1340          61.00       264.61
   97.33        2959.75           1343          67.00       290.76
   97.36        2960.00           1347          69.00       299.48
   97.38        2960.25           1350          82.00       356.15
   97.42        2960.50           1353          92.00       399.74
   97.44        2960.75           1357         139.00       604.63
   97.47        2961.00           1360         140.00       608.99
   97.50        2961.25           1364         204.00       887.99
   97.53        2961.50           1367         536.00      2335.40
   97.56        2961.75           1370        1576.00      6870.30
   97.59        2962.00           1374        4454.00     19426.63
   97.61        2962.25           1377        7164.00     31259.24
   97.65        2962.50           1380       10015.00     43717.18
   97.67        2962.75           1384       13898.00     60700.62
   97.70        2963.00           1387       16750.00     73186.46
   97.72        2963.25           1391       20249.00     88518.47
   97.75        2963.50           1394       22857.00     99956.09
   97.79        2963.75           1397       25889.00    113263.70
   97.81        2964.00           1401       30015.00    131391.30
   97.84        2964.25           1404       32723.00    143300.30
   97.87        2964.50           1408       36533.00    160071.10
   97.91        2964.75           1411       39820.00    174554.30
   97.93        2965.00           1414       42642.00    186999.30
   97.96        2965.25           1418       46467.00    203883.40
   97.99        2965.50           1421       49595.00    217704.50
   98.02        2965.75           1424       52155.00    229025.00
   98.05        2966.00           1428       56175.00    246818.40
   98.08        2966.25           1431       58726.00    258120.20
   98.11        2966.50           1435       61507.00    270450.40
   98.14        2966.75           1438       62375.00    274300.80
   98.17        2967.00           1441       63141.00    277699.60
   98.19        2967.25           1445       63270.00    278272.10
   98.22        2967.50           1448       63108.00    277553.20
   98.25        2967.75           1452       62413.00    274469.50
   98.28        2968.00           1455       60821.00    267408.00
   98.31        2968.25           1458       58676.00    257898.60
   98.33        2968.50           1462       54944.00    241367.50
   98.36        2968.75           1465       51937.00    228060.70
   98.39        2969.00           1469       48292.00    211945.70
   98.42        2969.25           1472       45431.00    199308.50
   98.45        2969.50           1475       42703.00    187268.40
   98.48        2969.75           1479       38770.00    169926.30
   98.51        2970.00           1482       35874.00    157169.10
   98.54        2970.25           1485       32912.00    144131.90
   98.57        2970.50           1489       29203.00    127822.10
   98.59        2970.75           1492       26541.00    116126.90
   98.63        2971.00           1496       22576.00     98723.34
   98.65        2971.25           1499       19600.00     85673.52
   98.68        2971.50           1502       16976.00     74176.30
   98.71        2971.75           1506       13150.00     57427.59
   98.74        2972.00           1509       10365.00     45247.25
   98.77        2972.25           1513        6544.00     28551.36
   98.80        2972.50           1516        3889.00     16960.82
   98.82        2972.75           1519        1772.00      7725.10
   98.85        2973.00           1523         357.00      1555.00
   98.89        2973.25           1526         152.00       661.30
   98.91        2973.50           1530         124.00       539.24
   98.94        2973.75           1533          88.00       382.31
   98.96        2974.00           1536          72.00       312.56
   99.00        2974.25           1540          74.00       321.28
   99.02        2974.50           1543          66.00       286.40
   99.05        2974.75           1547          61.00       264.61
   99.08        2975.00           1550          60.00       260.25
   99.11        2975.25           1553          49.00       212.29
   99.14        2975.50           1557          51.00       221.01
   99.17        2975.75           1560          50.00       216.65
   99.19        2976.00           1564          49.00       212.29
   99.23        2976.25           1567          56.00       242.81
   99.25        2976.50           1570          58.00       251.53
   99.28        2976.75           1574          49.00       212.29
   99.31        2977.00           1577          59.00       255.89
   99.34        2977.25           1581          54.00       234.09
   99.37        2977.50           1584          48.00       207.94
   99.40        2977.75           1587          49.00       212.29
   99.42        2978.00           1591          53.00       229.73
   99.45        2978.25           1594          56.00       242.81
   99.48        2978.50           1598          51.00       221.01
   99.51        2978.75           1601          48.00       207.94
   99.54        2979.00           1604          52.00       225.37
   99.56        2979.25           1608          53.00       229.73
   99.60        2979.50           1611          52.00       225.37
   99.62        2979.75           1614          47.00       203.58
   99.65        2980.00           1618          56.00       242.81
   99.68        2980.25           1621          47.00       203.58
   99.71        2980.50           1625          52.00       225.37
   99.74        2980.75           1628          57.00       247.17
   99.76        2981.00           1631          50.00       216.65
   99.79        2981.25           1635          51.00       221.01
   99.82        2981.50           1638          61.00       264.61
   99.85        2981.75           1642          47.00       203.58
   99.88        2982.00           1645          47.00       203.58
   99.90        2982.25           1648          54.00       234.09
   99.94        2982.50           1652          51.00       221.01
   99.97        2982.75           1655          51.00       221.01
   99.99        2983.00           1659          48.00       207.94
  100.02        2983.25           1662          50.00       216.65
  100.05        2983.50           1666          51.00       221.01
  100.08        2983.75           1669          49.00       212.29
  100.10        2984.00           1672          49.00       212.29
HS scan finished at 01:40:28
end
