************************************************************
  HS Scan of (1) Internal mercury lamp
************************************************************
Integration time is 0.2294 seconds per sample
dh240218El Arenosillo 37.1 6.73 2.25pr1000
************************************************************
Dead Time -------------------------  3.2E-08 
Number of Cycles Used -------------  4 
Starting Wavelength (Angstroms) ---  2950 
Final Wavelength (Angstoms) -------  2984 
Wavelength Increment (Angstroms) --  .25 
Filter Wheel #1 Position ---------- (1) Ground quartz diffuser (ND=2.32)
Filter Wheel #2 Position ---------- (1) Neutral Density 0.494



************************************************************
HS scan start time = 01:38:29
Dark Count =  .1 


Time (GMT)  Wavelength (Ang)  Step Number  Raw Counts  Counts/Second

   99.10        2950.00           1211          82.00       357.02
   99.32        2950.25           1215          77.00       335.23
   99.34        2950.50           1218          86.00       374.46
   99.37        2950.75           1222          80.00       348.30
   99.41        2951.00           1225          76.00       330.87
   99.43        2951.25           1228          76.00       330.87
   99.46        2951.50           1232          81.00       352.66
   99.49        2951.75           1235          79.00       343.94
   99.52        2952.00           1238          84.00       365.74
   99.55        2952.25           1242          76.00       330.87
   99.58        2952.50           1245          84.00       365.74
   99.61        2952.75           1249          83.00       361.38
   99.63        2953.00           1252          77.00       335.23
   99.66        2953.25           1255          83.00       361.38
   99.70        2953.50           1259          81.00       352.66
   99.72        2953.75           1262          89.00       387.54
   99.75        2954.00           1265          79.00       343.94
   99.78        2954.25           1269          88.00       383.18
   99.81        2954.50           1272          76.00       330.87
   99.84        2954.75           1276          89.00       387.54
   99.87        2955.00           1279          78.00       339.59
   99.90        2955.25           1282          80.00       348.30
   99.92        2955.50           1286          76.00       330.87
   99.95        2955.75           1289          79.00       343.94
   99.98        2956.00           1293          80.00       348.30
  100.01        2956.25           1296          83.00       361.38
  100.04        2956.50           1299          76.00       330.87
  100.07        2956.75           1303          85.00       370.10
  100.10        2957.00           1306          78.00       339.59
  100.12        2957.25           1309          85.00       370.10
  100.16        2957.50           1313          82.00       357.02
  100.19        2957.75           1316          84.00       365.74
  100.21        2958.00           1320          81.00       352.66
  100.24        2958.25           1323          96.00       418.05
  100.28        2958.50           1326          81.00       352.66
  100.30        2958.75           1330          84.00       365.74
  100.33        2959.00           1333          92.00       400.62
  100.36        2959.25           1336          94.00       409.33
  100.39        2959.50           1340         158.00       688.33
  100.41        2959.75           1343         134.00       583.71
  100.45        2960.00           1347         143.00       622.94
  100.48        2960.25           1350         178.00       775.52
  100.50        2960.50           1353         212.00       923.74
  100.54        2960.75           1357         282.00      1228.91
  100.56        2961.00           1360         389.00      1695.38
  100.59        2961.25           1364        1328.00      5789.65
  100.62        2961.50           1367        3539.00     15434.39
  100.64        2961.75           1370        8279.00     36131.12
  100.67        2962.00           1374       16785.00     73340.63
  100.69        2962.25           1377       23051.00    100808.10
  100.73        2962.50           1380       30389.00    133036.40
  100.76        2962.75           1384       39223.00    171923.60
  100.78        2963.00           1387       45639.00    200227.80
  100.82        2963.25           1391       54150.00    237853.60
  100.84        2963.50           1394       62038.00    272806.70
  100.87        2963.75           1397       68584.00    301872.80
  100.91        2964.00           1401       78475.00    345895.10
  100.93        2964.25           1404       85726.00    378246.80
  100.96        2964.50           1408       94723.00    418482.60
  100.99        2964.75           1411      101864.00    450492.50
  101.02        2965.00           1414      108969.00    482406.80
  101.05        2965.25           1418      118755.00    526471.40
  101.08        2965.50           1421      124620.00    552940.60
  101.11        2965.75           1424      131344.00    583342.30
  101.14        2966.00           1428      140005.00    622590.10
  101.16        2966.25           1431      145201.00    646184.00
  101.20        2966.50           1435      148619.00    661724.10
  101.23        2966.75           1438      149635.00    666346.40
  101.25        2967.00           1441      149068.00    663766.60
  101.28        2967.25           1445      149192.00    664330.80
  101.31        2967.50           1448      148358.00    660536.90
  101.34        2967.75           1452      144812.00    644416.40
  101.37        2968.00           1455      140129.00    623152.80
  101.40        2968.25           1458      133909.00    594955.40
  101.43        2968.50           1462      124886.00    554142.10
  101.45        2968.75           1465      118342.00    524609.10
  101.49        2969.00           1469      109096.00    482977.80
  101.51        2969.25           1472      102407.00    452929.30
  101.54        2969.50           1475       95402.00    421523.40
  101.57        2969.75           1479       86610.00    382195.60
  101.60        2970.00           1482       80125.00    353251.00
  101.63        2970.25           1485       73747.00    324836.50
  101.66        2970.50           1489       65400.00    287728.10
  101.69        2970.75           1492       58630.00    257695.70
  101.72        2971.00           1496       49327.00    216520.70
  101.74        2971.25           1499       42880.00    188050.20
  101.78        2971.50           1502       35937.00    157447.30
  101.81        2971.75           1506       26498.00    115938.90
  101.83        2972.00           1509       19262.00     84192.96
  101.87        2972.25           1513       10370.00     45269.98
  101.89        2972.50           1516        5141.00     22426.29
  101.92        2972.75           1519        1580.00      6888.62
  101.95        2973.00           1523         417.00      1817.46
  101.98        2973.25           1526         269.00      1172.23
  102.01        2973.50           1530         200.00       871.43
  102.03        2973.75           1533         169.00       736.29
  102.07        2974.00           1536         157.00       683.97
  102.09        2974.25           1540         147.00       640.38
  102.12        2974.50           1543          95.00       413.69
  102.16        2974.75           1547          92.00       400.62
  102.18        2975.00           1550          91.00       396.26
  102.21        2975.25           1553          89.00       387.54
  102.24        2975.50           1557          83.00       361.38
  102.27        2975.75           1560          94.00       409.33
  102.30        2976.00           1564          81.00       352.66
  102.32        2976.25           1567          89.00       387.54
  102.36        2976.50           1570          87.00       378.82
  102.39        2976.75           1574          88.00       383.18
  102.41        2977.00           1577          88.00       383.18
  102.45        2977.25           1581          97.00       422.41
  102.47        2977.50           1584          89.00       387.54
  102.50        2977.75           1587          86.00       374.46
  102.53        2978.00           1591          89.00       387.54
  102.55        2978.25           1594          85.00       370.10
  102.58        2978.50           1598          89.00       387.54
  102.61        2978.75           1601          94.00       409.33
  102.64        2979.00           1604          80.00       348.30
  102.67        2979.25           1608          96.00       418.05
  102.69        2979.50           1611          86.00       374.46
  102.73        2979.75           1614          81.00       352.66
  102.75        2980.00           1618          82.00       357.02
  102.78        2980.25           1621          75.00       326.51
  102.81        2980.50           1625          91.00       396.26
  102.84        2980.75           1628          81.00       352.66
  102.87        2981.00           1631          89.00       387.54
  102.89        2981.25           1635          87.00       378.82
  102.93        2981.50           1638          91.00       396.26
  102.96        2981.75           1642          77.00       335.23
  102.98        2982.00           1645          91.00       396.26
  103.02        2982.25           1648          84.00       365.74
  103.04        2982.50           1652          89.00       387.54
  103.07        2982.75           1655          86.00       374.46
  103.10        2983.00           1659          83.00       361.38
  103.12        2983.25           1662          87.00       378.82
  103.15        2983.50           1666          98.00       426.77
  103.17        2983.75           1669          87.00       378.82
  103.21        2984.00           1672          83.00       361.38
HS scan finished at 01:43:35
end
