************************************************************
  HS Scan of (1) Internal mercury lamp
************************************************************
Integration time is 0.2294 seconds per sample
dh100318El Arenosillo 37.1 6.73 2.8pr1000
************************************************************
Dead Time -------------------------  3.2E-08 
Number of Cycles Used -------------  4 
Starting Wavelength (Angstroms) ---  2950 
Final Wavelength (Angstoms) -------  2984 
Wavelength Increment (Angstroms) --  .25 
Filter Wheel #1 Position ---------- (1) Ground quartz diffuser (ND=2.32)
Filter Wheel #2 Position ---------- (1) Neutral Density 0.494



************************************************************
HS scan start time = 01:34:09
Dark Count =  .2 


Time (GMT)  Wavelength (Ang)  Step Number  Raw Counts  Counts/Second

   94.77        2950.00           1211          75.00       326.07
   94.99        2950.25           1215          70.00       304.28
   95.02        2950.50           1218          75.00       326.07
   95.05        2950.75           1222          67.00       291.20
   95.07        2951.00           1225          70.00       304.28
   95.11        2951.25           1228          60.00       260.68
   95.13        2951.50           1232          64.00       278.12
   95.16        2951.75           1235          64.00       278.12
   95.19        2952.00           1238          72.00       312.99
   95.22        2952.25           1242          64.00       278.12
   95.25        2952.50           1245          70.00       304.28
   95.28        2952.75           1249          73.00       317.35
   95.31        2953.00           1252          70.00       304.28
   95.34        2953.25           1255          72.00       312.99
   95.37        2953.50           1259          71.00       308.63
   95.39        2953.75           1262          72.00       312.99
   95.43        2954.00           1265          71.00       308.63
   95.45        2954.25           1269          69.00       299.92
   95.48        2954.50           1272          64.00       278.12
   95.51        2954.75           1276          66.00       286.84
   95.54        2955.00           1279          74.00       321.71
   95.57        2955.25           1282          67.00       291.20
   95.59        2955.50           1286          70.00       304.28
   95.62        2955.75           1289          72.00       312.99
   95.65        2956.00           1293          71.00       308.63
   95.68        2956.25           1296          73.00       317.35
   95.71        2956.50           1299          71.00       308.63
   95.74        2956.75           1303          67.00       291.20
   95.77        2957.00           1306          64.00       278.12
   95.79        2957.25           1309          67.00       291.20
   95.82        2957.50           1313          73.00       317.35
   95.85        2957.75           1316          70.00       304.28
   95.88        2958.00           1320          71.00       308.63
   95.91        2958.25           1323          72.00       312.99
   95.93        2958.50           1326          75.00       326.07
   95.97        2958.75           1330          77.00       334.79
   96.00        2959.00           1333          82.00       356.59
   96.02        2959.25           1336          89.00       387.10
   96.05        2959.50           1340         111.00       483.01
   96.08        2959.75           1343         158.00       687.90
   96.11        2960.00           1347         159.00       692.26
   96.14        2960.25           1350         194.00       844.84
   96.17        2960.50           1353         262.00      1141.28
   96.20        2960.75           1357         281.00      1224.11
   96.22        2961.00           1360         335.00      1459.53
   96.25        2961.25           1364         896.00      3905.46
   96.28        2961.50           1367        2522.00     10996.89
   96.31        2961.75           1370        6127.00     26730.79
   96.34        2962.00           1374       15366.00     67126.60
   96.36        2962.25           1377       23546.00    102979.60
   96.40        2962.50           1380       31421.00    137573.80
   96.43        2962.75           1384       42678.00    187158.60
   96.45        2963.00           1387       51633.00    226716.50
   96.48        2963.25           1391       62422.00    274509.80
   96.51        2963.50           1394       70246.00    309260.80
   96.54        2963.75           1397       79190.00    349081.80
   96.57        2964.00           1401       90343.00    398881.20
   96.60        2964.25           1404       99144.00    438291.70
   96.63        2964.50           1408      110106.00    487519.60
   96.66        2964.75           1411      118873.00    527003.00
   96.68        2965.00           1414      127394.00    565475.10
   96.72        2965.25           1418      139258.00    619200.60
   96.75        2965.50           1421      148119.00    659449.40
   96.77        2965.75           1424      156527.00    697737.50
   96.80        2966.00           1428      167125.00    746134.00
   96.83        2966.25           1431      175401.00    784032.80
   96.86        2966.50           1435      182455.00    816409.10
   96.89        2966.75           1438      184921.00    827743.70
   96.92        2967.00           1441      185339.00    829665.70
   96.95        2967.25           1445      185581.00    830778.60
   96.97        2967.50           1448      185519.00    830493.60
   97.00        2967.75           1452      183209.00    819874.00
   97.03        2968.00           1455      178868.00    799937.00
   97.06        2968.25           1458      171431.00    765841.10
   97.09        2968.50           1462      160599.00    716314.60
   97.11        2968.75           1465      152420.00    679023.30
   97.15        2969.00           1469      141205.00    628035.40
   97.17        2969.25           1472      132934.00    590539.60
   97.20        2969.50           1475      124837.00    553920.30
   97.23        2969.75           1479      113404.00    502360.80
   97.26        2970.00           1482      105842.00    468352.30
   97.29        2970.25           1485       97957.00    432970.60
   97.32        2970.50           1489       86456.00    381507.20
   97.35        2970.75           1492       78649.00    346670.20
   97.38        2971.00           1496       66957.00    294643.00
   97.41        2971.25           1499       58313.00    256290.40
   97.44        2971.50           1502       49682.00    218089.50
   97.47        2971.75           1506       37558.00    164586.40
   97.50        2972.00           1509       28804.00    126069.00
   97.52        2972.25           1513       17354.00     75832.46
   97.55        2972.50           1516        9848.00     42987.60
   97.58        2972.75           1519        3954.00     17244.91
   97.61        2973.00           1523         845.00      3683.08
   97.64        2973.25           1526         381.00      1660.07
   97.66        2973.50           1530         259.00      1128.20
   97.70        2973.75           1533         193.00       840.48
   97.73        2974.00           1536         160.00       696.62
   97.75        2974.25           1540         148.00       644.30
   97.78        2974.50           1543          94.00       408.90
   97.81        2974.75           1547          94.00       408.90
   97.84        2975.00           1550          92.00       400.18
   97.86        2975.25           1553          89.00       387.10
   97.90        2975.50           1557          80.00       347.87
   97.93        2975.75           1560          75.00       326.07
   97.95        2976.00           1564          89.00       387.10
   97.98        2976.25           1567          88.00       382.74
   98.01        2976.50           1570          80.00       347.87
   98.04        2976.75           1574          89.00       387.10
   98.07        2977.00           1577          86.00       374.02
   98.09        2977.25           1581          88.00       382.74
   98.13        2977.50           1584          78.00       339.15
   98.15        2977.75           1587          89.00       387.10
   98.18        2978.00           1591          85.00       369.66
   98.21        2978.25           1594          89.00       387.10
   98.24        2978.50           1598          87.00       378.38
   98.27        2978.75           1601          81.00       352.23
   98.29        2979.00           1604          82.00       356.59
   98.32        2979.25           1608          89.00       387.10
   98.35        2979.50           1611          72.00       312.99
   98.38        2979.75           1614          76.00       330.43
   98.41        2980.00           1618          80.00       347.87
   98.44        2980.25           1621          80.00       347.87
   98.47        2980.50           1625          79.00       343.51
   98.49        2980.75           1628          79.00       343.51
   98.52        2981.00           1631          78.00       339.15
   98.55        2981.25           1635          73.00       317.35
   98.58        2981.50           1638          86.00       374.02
   98.61        2981.75           1642          78.00       339.15
   98.64        2982.00           1645          77.00       334.79
   98.67        2982.25           1648          77.00       334.79
   98.70        2982.50           1652          79.00       343.51
   98.72        2982.75           1655          78.00       339.15
   98.76        2983.00           1659          81.00       352.23
   98.78        2983.25           1662          74.00       321.71
   98.81        2983.50           1666          82.00       356.59
   98.84        2983.75           1669          73.00       317.35
   98.87        2984.00           1672          69.00       299.92
HS scan finished at 01:39:14
end
