************************************************************
  HS Scan of (1) Internal mercury lamp
************************************************************
Integration time is 0.2294 seconds per sample
dh030318El Arenosillo 37.1 6.73 2.72pr1000
************************************************************
Dead Time -------------------------  3.2E-08 
Number of Cycles Used -------------  4 
Starting Wavelength (Angstroms) ---  2950 
Final Wavelength (Angstoms) -------  2984 
Wavelength Increment (Angstroms) --  .25 
Filter Wheel #1 Position ---------- (1) Ground quartz diffuser (ND=2.32)
Filter Wheel #2 Position ---------- (1) Neutral Density 0.494



************************************************************
HS scan start time = 01:37:46
Dark Count =  .3 


Time (GMT)  Wavelength (Ang)  Step Number  Raw Counts  Counts/Second

   98.39        2950.00           1211          73.00       316.92
   98.60        2950.25           1215          69.00       299.48
   98.63        2950.50           1218          65.00       282.04
   98.66        2950.75           1222          72.00       312.56
   98.69        2951.00           1225          65.00       282.04
   98.72        2951.25           1228          67.00       290.76
   98.74        2951.50           1232          67.00       290.76
   98.78        2951.75           1235          92.00       399.74
   98.81        2952.00           1238          69.00       299.48
   98.83        2952.25           1242          78.00       338.71
   98.86        2952.50           1245          70.00       303.84
   98.88        2952.75           1249          73.00       316.92
   98.91        2953.00           1252          70.00       303.84
   98.94        2953.25           1255          76.00       329.99
   98.97        2953.50           1259          76.00       329.99
   99.00        2953.75           1262          72.00       312.56
   99.02        2954.00           1265          75.00       325.64
   99.06        2954.25           1269          75.00       325.64
   99.09        2954.50           1272          66.00       286.40
   99.11        2954.75           1276          74.00       321.28
   99.15        2955.00           1279          74.00       321.28
   99.17        2955.25           1282          75.00       325.64
   99.20        2955.50           1286          78.00       338.71
   99.23        2955.75           1289          72.00       312.56
   99.26        2956.00           1293          66.00       286.40
   99.29        2956.25           1296          82.00       356.15
   99.31        2956.50           1299          64.00       277.68
   99.35        2956.75           1303          77.00       334.35
   99.37        2957.00           1306          73.00       316.92
   99.40        2957.25           1309          72.00       312.56
   99.43        2957.50           1313          72.00       312.56
   99.46        2957.75           1316          76.00       329.99
   99.49        2958.00           1320          76.00       329.99
   99.52        2958.25           1323          76.00       329.99
   99.55        2958.50           1326          77.00       334.35
   99.57        2958.75           1330          81.00       351.79
   99.60        2959.00           1333          85.00       369.23
   99.64        2959.25           1336          92.00       399.74
   99.66        2959.50           1340         118.00       513.09
   99.69        2959.75           1343         132.00       574.12
   99.72        2960.00           1347         172.00       748.49
   99.75        2960.25           1350         189.00       822.60
   99.78        2960.50           1353         239.00      1040.58
   99.81        2960.75           1357         284.00      1236.75
   99.84        2961.00           1360         521.00      2270.00
   99.86        2961.25           1364        1794.00      7821.05
   99.89        2961.50           1367        4651.00     20286.49
   99.91        2961.75           1370       10348.00     45172.93
   99.94        2962.00           1374       20633.00     90202.01
   99.97        2962.25           1377       29097.00    127356.30
  100.00        2962.50           1380       37570.00    164638.90
  100.03        2962.75           1384       48847.00    214398.40
  100.06        2963.00           1387       57370.00    252111.60
  100.09        2963.25           1391       68904.00    303294.20
  100.12        2963.50           1394       77681.00    342355.80
  100.14        2963.75           1397       85071.00    375320.80
  100.18        2964.00           1401       96473.00    426320.20
  100.21        2964.25           1404      104740.00    463402.10
  100.23        2964.50           1408      115101.00    510002.50
  100.26        2964.75           1411      123786.00    549173.00
  100.29        2965.00           1414      132710.00    589524.90
  100.32        2965.25           1418      143869.00    640131.40
  100.35        2965.50           1421      152248.00    678239.60
  100.38        2965.75           1424      160579.00    716223.00
  100.41        2966.00           1428      171292.00    765204.10
  100.44        2966.25           1431      177549.00    793884.00
  100.47        2966.50           1435      181587.00    812421.10
  100.50        2966.75           1438      182419.00    816243.30
  100.52        2967.00           1441      182684.00    817461.00
  100.56        2967.25           1445      181974.00    814198.90
  100.59        2967.50           1448      180680.00    808255.50
  100.61        2967.75           1452      175593.00    784912.70
  100.64        2968.00           1455      168870.00    754116.80
  100.67        2968.25           1458      161656.00    721140.10
  100.70        2968.50           1462      151247.00    673682.00
  100.73        2968.75           1465      142811.00    635326.10
  100.76        2969.00           1469      132019.00    586396.60
  100.79        2969.25           1472      123782.00    549155.00
  100.81        2969.50           1475      116290.00    515359.20
  100.85        2969.75           1479      105637.00    467431.00
  100.88        2970.00           1482       98013.00    433221.20
  100.90        2970.25           1485       90352.00    398921.00
  100.93        2970.50           1489       79778.00    351702.90
  100.97        2970.75           1492       71826.00    316287.50
  100.99        2971.00           1496       61055.00    268445.70
  101.02        2971.25           1499       52267.00    229520.50
  101.06        2971.50           1502       43466.00    190635.00
  101.08        2971.75           1506       32008.00    140155.10
  101.11        2972.00           1509       23958.00    104787.10
  101.14        2972.25           1513       12785.00     55830.70
  101.17        2972.50           1516        5916.00     25809.02
  101.20        2972.75           1519        2041.00      8898.35
  101.23        2973.00           1523         484.00      2108.69
  101.26        2973.25           1526         319.00      1389.34
  101.28        2973.50           1530         262.00      1140.84
  101.32        2973.75           1533         184.00       800.81
  101.35        2974.00           1536         152.00       661.30
  101.37        2974.25           1540         142.00       617.71
  101.40        2974.50           1543         108.00       469.49
  101.43        2974.75           1547         102.00       443.34
  101.46        2975.00           1550          89.00       386.67
  101.49        2975.25           1553          96.00       417.18
  101.52        2975.50           1557          86.00       373.59
  101.55        2975.75           1560          83.00       360.51
  101.57        2976.00           1564          92.00       399.74
  101.60        2976.25           1567          85.00       369.23
  101.63        2976.50           1570          87.00       377.95
  101.66        2976.75           1574          80.00       347.43
  101.69        2977.00           1577          74.00       321.28
  101.72        2977.25           1581          91.00       395.38
  101.75        2977.50           1584          88.00       382.31
  101.77        2977.75           1587          88.00       382.31
  101.81        2978.00           1591          85.00       369.23
  101.84        2978.25           1594          82.00       356.15
  101.86        2978.50           1598          81.00       351.79
  101.90        2978.75           1601          89.00       386.67
  101.92        2979.00           1604          75.00       325.64
  101.95        2979.25           1608          86.00       373.59
  101.98        2979.50           1611          80.00       347.43
  102.01        2979.75           1614          81.00       351.79
  102.04        2980.00           1618          84.00       364.87
  102.06        2980.25           1621          78.00       338.71
  102.10        2980.50           1625          83.00       360.51
  102.12        2980.75           1628          81.00       351.79
  102.15        2981.00           1631          84.00       364.87
  102.18        2981.25           1635          86.00       373.59
  102.21        2981.50           1638          82.00       356.15
  102.24        2981.75           1642          83.00       360.51
  102.27        2982.00           1645          82.00       356.15
  102.30        2982.25           1648          80.00       347.43
  102.32        2982.50           1652          79.00       343.07
  102.35        2982.75           1655          83.00       360.51
  102.38        2983.00           1659          74.00       321.28
  102.40        2983.25           1662          80.00       347.43
  102.43        2983.50           1666          81.00       351.79
  102.46        2983.75           1669          81.00       351.79
  102.49        2984.00           1672          82.00       356.15
HS scan finished at 01:42:52
end
