************************************************************
  HS Scan of (1) Internal mercury lamp
************************************************************
Integration time is 0.2294 seconds per sample
dh170318El Arenosillo 37.1 6.73 2.52pr1000
************************************************************
Dead Time -------------------------  3.2E-08 
Number of Cycles Used -------------  4 
Starting Wavelength (Angstroms) ---  2950 
Final Wavelength (Angstoms) -------  2984 
Wavelength Increment (Angstroms) --  .25 
Filter Wheel #1 Position ---------- (1) Ground quartz diffuser (ND=2.32)
Filter Wheel #2 Position ---------- (1) Neutral Density 0.494



************************************************************
HS scan start time = 01:31:24
Dark Count =  .3 


Time (GMT)  Wavelength (Ang)  Step Number  Raw Counts  Counts/Second

   92.01        2950.00           1211          66.00       286.40
   92.22        2950.25           1215          81.00       351.79
   92.25        2950.50           1218          67.00       290.76
   92.28        2950.75           1222          72.00       312.56
   92.31        2951.00           1225          71.00       308.20
   92.34        2951.25           1228          73.00       316.92
   92.37        2951.50           1232          71.00       308.20
   92.39        2951.75           1235          78.00       338.71
   92.42        2952.00           1238          71.00       308.20
   92.45        2952.25           1242          69.00       299.48
   92.48        2952.50           1245          74.00       321.28
   92.51        2952.75           1249          73.00       316.92
   92.54        2953.00           1252          72.00       312.56
   92.57        2953.25           1255          69.00       299.48
   92.60        2953.50           1259          66.00       286.40
   92.62        2953.75           1262          68.00       295.12
   92.65        2954.00           1265          72.00       312.56
   92.69        2954.25           1269          74.00       321.28
   92.71        2954.50           1272          64.00       277.68
   92.74        2954.75           1276          73.00       316.92
   92.76        2955.00           1279          73.00       316.92
   92.80        2955.25           1282          81.00       351.79
   92.83        2955.50           1286          70.00       303.84
   92.85        2955.75           1289          72.00       312.56
   92.88        2956.00           1293          74.00       321.28
   92.91        2956.25           1296          74.00       321.28
   92.94        2956.50           1299          70.00       303.84
   92.97        2956.75           1303          75.00       325.64
   93.00        2957.00           1306          72.00       312.56
   93.03        2957.25           1309          68.00       295.12
   93.05        2957.50           1313          63.00       273.32
   93.08        2957.75           1316          74.00       321.28
   93.11        2958.00           1320          70.00       303.84
   93.14        2958.25           1323          74.00       321.28
   93.17        2958.50           1326          86.00       373.59
   93.20        2958.75           1330          86.00       373.59
   93.23        2959.00           1333          75.00       325.64
   93.26        2959.25           1336          92.00       399.74
   93.28        2959.50           1340         103.00       447.70
   93.31        2959.75           1343         119.00       517.45
   93.34        2960.00           1347         149.00       648.23
   93.37        2960.25           1350         155.00       674.38
   93.40        2960.50           1353         201.00       874.92
   93.42        2960.75           1357         247.00      1075.45
   93.45        2961.00           1360         371.00      1616.04
   93.48        2961.25           1364        1219.00      5313.46
   93.51        2961.50           1367        3269.00     14255.41
   93.54        2961.75           1370        7363.00     32128.49
   93.57        2962.00           1374       15999.00     69897.66
   93.60        2962.25           1377       23777.00    103992.80
   93.62        2962.50           1380       31713.00    138857.60
   93.65        2962.75           1384       41727.00    182963.00
   93.68        2963.00           1387       49636.00    217885.80
   93.71        2963.25           1391       59634.00    262145.00
   93.74        2963.50           1394       67691.00    297903.60
   93.76        2963.75           1397       74750.00    329300.60
   93.80        2964.00           1401       84691.00    373624.00
   93.83        2964.25           1404       92447.00    408293.40
   93.85        2964.50           1408      101418.00    448490.50
   93.88        2964.75           1411      109085.00    482927.50
   93.91        2965.00           1414      116757.00    517463.70
   93.94        2965.25           1418      126917.00    563318.60
   93.97        2965.50           1421      134399.00    597174.00
   94.00        2965.75           1424      142647.00    634581.50
   94.03        2966.00           1428      151815.00    676268.00
   94.06        2966.25           1431      157603.00    702643.80
   94.08        2966.50           1435      162504.00    725012.80
   94.11        2966.75           1438      163129.00    727867.80
   94.14        2967.00           1441      163717.00    730554.10
   94.17        2967.25           1445      163258.00    728457.10
   94.20        2967.50           1448      162569.00    725309.70
   94.22        2967.75           1452      158768.00    707958.10
   94.25        2968.00           1455      153093.00    682087.90
   94.28        2968.25           1458      147255.00    655519.80
   94.31        2968.50           1462      137470.00    611091.50
   94.34        2968.75           1465      129889.00    576757.80
   94.37        2969.00           1469      120412.00    533944.00
   94.40        2969.25           1472      112983.00    500465.00
   94.43        2969.50           1475      105941.00    468796.70
   94.45        2969.75           1479       96916.00    428305.00
   94.48        2970.00           1482       89424.00    394771.30
   94.51        2970.25           1485       82901.00    365633.70
   94.54        2970.50           1489       73774.00    324955.80
   94.57        2970.75           1492       66251.00    291506.50
   94.60        2971.00           1496       56793.00    249555.60
   94.63        2971.25           1499       49007.00    215105.50
   94.66        2971.50           1502       41001.00    179761.30
   94.69        2971.75           1506       31293.00    137010.50
   94.72        2972.00           1509       24274.00    106174.00
   94.75        2972.25           1513       14056.00     61392.07
   94.77        2972.50           1516        7488.00     32674.52
   94.80        2972.75           1519        2845.00     12405.53
   94.83        2973.00           1523         596.00      2596.99
   94.86        2973.25           1526         305.00      1328.30
   94.89        2973.50           1530         268.00      1167.00
   94.92        2973.75           1533         201.00       874.92
   94.95        2974.00           1536         150.00       652.59
   94.98        2974.25           1540         144.00       626.43
   95.00        2974.50           1543         126.00       547.96
   95.03        2974.75           1547          93.00       404.10
   95.06        2975.00           1550          91.00       395.38
   95.09        2975.25           1553          79.00       343.07
   95.12        2975.50           1557          87.00       377.95
   95.14        2975.75           1560          74.00       321.28
   95.17        2976.00           1564          81.00       351.79
   95.20        2976.25           1567          85.00       369.23
   95.23        2976.50           1570          83.00       360.51
   95.26        2976.75           1574          80.00       347.43
   95.28        2977.00           1577          81.00       351.79
   95.31        2977.25           1581          77.00       334.35
   95.34        2977.50           1584          78.00       338.71
   95.36        2977.75           1587          86.00       373.59
   95.40        2978.00           1591          87.00       377.95
   95.43        2978.25           1594          82.00       356.15
   95.45        2978.50           1598          82.00       356.15
   95.48        2978.75           1601          82.00       356.15
   95.51        2979.00           1604          83.00       360.51
   95.54        2979.25           1608          92.00       399.74
   95.57        2979.50           1611          76.00       329.99
   95.59        2979.75           1614          80.00       347.43
   95.63        2980.00           1618          79.00       343.07
   95.66        2980.25           1621          81.00       351.79
   95.68        2980.50           1625          82.00       356.15
   95.71        2980.75           1628          81.00       351.79
   95.74        2981.00           1631         105.00       456.41
   95.77        2981.25           1635          88.00       382.31
   95.79        2981.50           1638          83.00       360.51
   95.82        2981.75           1642          72.00       312.56
   95.86        2982.00           1645          77.00       334.35
   95.88        2982.25           1648          71.00       308.20
   95.91        2982.50           1652          80.00       347.43
   95.94        2982.75           1655          74.00       321.28
   95.97        2983.00           1659          85.00       369.23
   96.00        2983.25           1662          85.00       369.23
   96.02        2983.50           1666          83.00       360.51
   96.05        2983.75           1669          75.00       325.64
   96.08        2984.00           1672          78.00       338.71
HS scan finished at 01:36:27
end
