************************************************************
  HS Scan of (1) Internal mercury lamp
************************************************************
Integration time is 0.2294 seconds per sample
dh240318El Arenosillo 37.1 6.73 2.7pr1000
************************************************************
Dead Time -------------------------  3.2E-08 
Number of Cycles Used -------------  4 
Starting Wavelength (Angstroms) ---  2950 
Final Wavelength (Angstoms) -------  2984 
Wavelength Increment (Angstroms) --  .25 
Filter Wheel #1 Position ---------- (1) Ground quartz diffuser (ND=2.32)
Filter Wheel #2 Position ---------- (1) Neutral Density 0.494



************************************************************
HS scan start time = 01:29:06
Dark Count =  .3 


Time (GMT)  Wavelength (Ang)  Step Number  Raw Counts  Counts/Second

   89.72        2950.00           1211          80.00       347.43
   89.94        2950.25           1215          71.00       308.20
   89.96        2950.50           1218          70.00       303.84
   89.99        2950.75           1222          64.00       277.68
   90.02        2951.00           1225          72.00       312.56
   90.05        2951.25           1228          71.00       308.20
   90.08        2951.50           1232          67.00       290.76
   90.10        2951.75           1235          77.00       334.35
   90.13        2952.00           1238          73.00       316.92
   90.16        2952.25           1242          68.00       295.12
   90.19        2952.50           1245          69.00       299.48
   90.22        2952.75           1249          73.00       316.92
   90.24        2953.00           1252          67.00       290.76
   90.28        2953.25           1255          67.00       290.76
   90.30        2953.50           1259          70.00       303.84
   90.33        2953.75           1262          65.00       282.04
   90.36        2954.00           1265          72.00       312.56
   90.39        2954.25           1269          60.00       260.25
   90.42        2954.50           1272          66.00       286.40
   90.44        2954.75           1276          70.00       303.84
   90.47        2955.00           1279          73.00       316.92
   90.50        2955.25           1282          75.00       325.64
   90.53        2955.50           1286          69.00       299.48
   90.56        2955.75           1289          69.00       299.48
   90.58        2956.00           1293          67.00       290.76
   90.62        2956.25           1296          68.00       295.12
   90.65        2956.50           1299          67.00       290.76
   90.67        2956.75           1303          68.00       295.12
   90.70        2957.00           1306          66.00       286.40
   90.73        2957.25           1309          75.00       325.64
   90.76        2957.50           1313          68.00       295.12
   90.79        2957.75           1316          81.00       351.79
   90.82        2958.00           1320          69.00       299.48
   90.85        2958.25           1323          77.00       334.35
   90.87        2958.50           1326          54.00       234.09
   90.89        2958.75           1330          82.00       356.15
   90.92        2959.00           1333          81.00       351.79
   90.95        2959.25           1336          94.00       408.46
   90.97        2959.50           1340         122.00       530.52
   91.00        2959.75           1343         150.00       652.59
   91.04        2960.00           1347         149.00       648.23
   91.06        2960.25           1350         168.00       731.05
   91.09        2960.50           1353         214.00       931.59
   91.11        2960.75           1357         267.00      1162.64
   91.15        2961.00           1360         351.00      1528.85
   91.18        2961.25           1364        1042.00      4541.64
   91.20        2961.50           1367        2780.00     12121.97
   91.23        2961.75           1370        7096.00     30962.22
   91.27        2962.00           1374       16438.00     71820.06
   91.29        2962.25           1377       24327.00    106406.60
   91.32        2962.50           1380       32177.00    140898.50
   91.35        2962.75           1384       42881.00    188053.70
   91.38        2963.00           1387       51733.00    227158.30
   91.41        2963.25           1391       61906.00    272220.20
   91.43        2963.50           1394       69456.00    305748.00
   91.46        2963.75           1397       78150.00    344445.80
   91.50        2964.00           1401       88899.00    392424.20
   91.52        2964.25           1404       97394.00    430446.90
   91.55        2964.50           1408      107879.00    477505.60
   91.58        2964.75           1411      115489.00    511750.30
   91.61        2965.00           1414      123818.00    549317.50
   91.64        2965.25           1418      134900.00    599443.60
   91.67        2965.50           1421      143166.00    636938.30
   91.70        2965.75           1424      150912.00    672157.10
   91.73        2966.00           1428      160706.00    716802.60
   91.75        2966.25           1431      167904.00    749697.00
   91.78        2966.50           1435      173568.00    775630.30
   91.81        2966.75           1438      174430.00    779580.90
   91.84        2967.00           1441      175204.00    783129.10
   91.87        2967.25           1445      174802.00    781286.20
   91.90        2967.50           1448      173739.00    776414.00
   91.93        2967.75           1452      170301.00    760666.60
   91.96        2968.00           1455      165198.00    737322.50
   91.98        2968.25           1458      157896.00    703980.10
   92.01        2968.50           1462      147882.00    658371.00
   92.04        2968.75           1465      139853.00    621899.60
   92.07        2969.00           1469      129314.00    574156.80
   92.10        2969.25           1472      121709.00    539796.40
   92.12        2969.50           1475      113319.00    501977.70
   92.15        2969.75           1479      102230.00    452134.10
   92.18        2970.00           1482       94942.00    419462.50
   92.21        2970.25           1485       87597.00    386604.70
   92.24        2970.50           1489       76789.00    338381.50
   92.27        2970.75           1492       70024.00    308273.30
   92.30        2971.00           1496       60393.00    265510.10
   92.33        2971.25           1499       51976.00    228233.20
   92.35        2971.50           1502       44631.00    195776.70
   92.38        2971.75           1506       34097.00    149346.30
   92.41        2972.00           1509       25810.00    112916.90
   92.44        2972.25           1513       14896.00     65068.65
   92.47        2972.50           1516        8285.00     36156.46
   92.50        2972.75           1519        2941.00     12824.36
   92.53        2973.00           1523         597.00      2601.35
   92.55        2973.25           1526         312.00      1358.82
   92.58        2973.50           1530         232.00      1010.06
   92.61        2973.75           1533         190.00       826.96
   92.64        2974.00           1536         151.00       656.94
   92.67        2974.25           1540         138.00       600.27
   92.69        2974.50           1543         100.00       434.62
   92.72        2974.75           1547          92.00       399.74
   92.75        2975.00           1550          88.00       382.31
   92.78        2975.25           1553          82.00       356.15
   92.81        2975.50           1557          80.00       347.43
   92.84        2975.75           1560          84.00       364.87
   92.87        2976.00           1564          82.00       356.15
   92.90        2976.25           1567          79.00       343.07
   92.92        2976.50           1570          87.00       377.95
   92.95        2976.75           1574          87.00       377.95
   92.97        2977.00           1577          80.00       347.43
   93.00        2977.25           1581          79.00       343.07
   93.03        2977.50           1584          82.00       356.15
   93.06        2977.75           1587          76.00       329.99
   93.09        2978.00           1591          79.00       343.07
   93.11        2978.25           1594          75.00       325.64
   93.14        2978.50           1598          84.00       364.87
   93.17        2978.75           1601          73.00       316.92
   93.20        2979.00           1604          84.00       364.87
   93.23        2979.25           1608          74.00       321.28
   93.25        2979.50           1611          82.00       356.15
   93.29        2979.75           1614          81.00       351.79
   93.31        2980.00           1618          67.00       290.76
   93.34        2980.25           1621          81.00       351.79
   93.37        2980.50           1625          71.00       308.20
   93.40        2980.75           1628          75.00       325.64
   93.43        2981.00           1631          67.00       290.76
   93.45        2981.25           1635          73.00       316.92
   93.48        2981.50           1638          85.00       369.23
   93.52        2981.75           1642          72.00       312.56
   93.54        2982.00           1645          78.00       338.71
   93.57        2982.25           1648          68.00       295.12
   93.60        2982.50           1652          78.00       338.71
   93.63        2982.75           1655          80.00       347.43
   93.66        2983.00           1659          81.00       351.79
   93.68        2983.25           1662          70.00       303.84
   93.71        2983.50           1666          68.00       295.12
   93.74        2983.75           1669          71.00       308.20
   93.77        2984.00           1672          77.00       334.35
HS scan finished at 01:34:08
end
