************************************************************
  HS Scan of (1) Internal mercury lamp
************************************************************
Integration time is 0.2294 seconds per sample
dh310318El Arenosillo 37.1 6.73 2.54pr1000
************************************************************
Dead Time -------------------------  3.2E-08 
Number of Cycles Used -------------  4 
Starting Wavelength (Angstroms) ---  2950 
Final Wavelength (Angstoms) -------  2984 
Wavelength Increment (Angstroms) --  .25 
Filter Wheel #1 Position ---------- (1) Ground quartz diffuser (ND=2.32)
Filter Wheel #2 Position ---------- (1) Neutral Density 0.494



************************************************************
HS scan start time = 01:29:51
Dark Count =  .2 


Time (GMT)  Wavelength (Ang)  Step Number  Raw Counts  Counts/Second

   90.47        2950.00           1211          67.00       291.20
   90.68        2950.25           1215          65.00       282.48
   90.71        2950.50           1218          73.00       317.35
   90.74        2950.75           1222          70.00       304.28
   90.77        2951.00           1225          69.00       299.92
   90.80        2951.25           1228          75.00       326.07
   90.83        2951.50           1232          68.00       295.56
   90.86        2951.75           1235          65.00       282.48
   90.89        2952.00           1238          71.00       308.63
   90.91        2952.25           1242          66.00       286.84
   90.94        2952.50           1245          68.00       295.56
   90.97        2952.75           1249          67.00       291.20
   91.00        2953.00           1252          67.00       291.20
   91.03        2953.25           1255          64.00       278.12
   91.05        2953.50           1259          72.00       312.99
   91.08        2953.75           1262          75.00       326.07
   91.11        2954.00           1265          73.00       317.35
   91.13        2954.25           1269          70.00       304.28
   91.17        2954.50           1272          70.00       304.28
   91.19        2954.75           1276          67.00       291.20
   91.22        2955.00           1279          69.00       299.92
   91.25        2955.25           1282          64.00       278.12
   91.28        2955.50           1286          70.00       304.28
   91.31        2955.75           1289          69.00       299.92
   91.33        2956.00           1293          72.00       312.99
   91.37        2956.25           1296          74.00       321.71
   91.40        2956.50           1299          64.00       278.12
   91.42        2956.75           1303          69.00       299.92
   91.46        2957.00           1306          68.00       295.56
   91.48        2957.25           1309          71.00       308.63
   91.51        2957.50           1313          63.00       273.76
   91.54        2957.75           1316          72.00       312.99
   91.57        2958.00           1320          69.00       299.92
   91.60        2958.25           1323          73.00       317.35
   91.62        2958.50           1326          75.00       326.07
   91.66        2958.75           1330          68.00       295.56
   91.68        2959.00           1333          86.00       374.02
   91.71        2959.25           1336          84.00       365.31
   91.74        2959.50           1340         105.00       456.85
   91.77        2959.75           1343         125.00       544.04
   91.80        2960.00           1347         146.00       635.58
   91.82        2960.25           1350         185.00       805.60
   91.86        2960.50           1353         212.00       923.31
   91.89        2960.75           1357         254.00      1106.40
   91.91        2961.00           1360         351.00      1529.28
   91.94        2961.25           1364        1034.00      4507.19
   91.97        2961.50           1367        3049.00     13295.98
   92.00        2961.75           1370        7145.00     31176.69
   92.03        2962.00           1374       16099.00     70336.00
   92.06        2962.25           1377       23575.00    103106.90
   92.09        2962.50           1380       31192.00    136566.80
   92.11        2962.75           1384       41488.00    181909.40
   92.14        2963.00           1387       48129.00    211225.90
   92.18        2963.25           1391       58175.00    255678.80
   92.20        2963.50           1394       65308.00    287319.20
   92.23        2963.75           1397       73121.00    322049.90
   92.26        2964.00           1401       83988.00    370485.80
   92.29        2964.25           1404       90403.00    399149.50
   92.32        2964.50           1408      101552.00    449092.20
   92.34        2964.75           1411      108933.00    482244.40
   92.38        2965.00           1414      116060.00    514323.30
   92.41        2965.25           1418      126259.00    560345.10
   92.43        2965.50           1421      133584.00    593483.00
   92.47        2965.75           1424      140729.00    625875.00
   92.50        2966.00           1428      150008.00    668043.10
   92.52        2966.25           1431      156390.00    697112.90
   92.55        2966.50           1435      162368.00    724392.10
   92.58        2966.75           1438      163679.00    730381.00
   92.61        2967.00           1441      164276.00    733109.00
   92.63        2967.25           1445      163961.00    731669.50
   92.67        2967.50           1448      163234.00    728347.90
   92.70        2967.75           1452      160319.00    715036.50
   92.72        2968.00           1455      154461.00    688320.60
   92.75        2968.25           1458      147998.00    658899.00
   92.78        2968.50           1462      138604.00    616234.20
   92.81        2968.75           1465      131349.00    583364.50
   92.84        2969.00           1469      122078.00    541462.30
   92.87        2969.25           1472      114654.00    507989.60
   92.90        2969.50           1475      107047.00    473766.60
   92.92        2969.75           1479       97735.00    431975.60
   92.96        2970.00           1482       90947.00    401582.70
   92.99        2970.25           1485       83148.00    366736.50
   93.02        2970.50           1489       73197.00    322388.10
   93.04        2970.75           1492       65462.00    288003.00
   93.08        2971.00           1496       56248.00    247142.10
   93.11        2971.25           1499       48743.00    213939.20
   93.14        2971.50           1502       41156.00    180445.20
   93.17        2971.75           1506       31809.00    139280.30
   93.20        2972.00           1509       24319.00    106371.90
   93.22        2972.25           1513       14093.00     61554.44
   93.25        2972.50           1516        7607.00     33194.79
   93.28        2972.75           1519        2691.00     11734.14
   93.31        2973.00           1523         482.00      2100.40
   93.34        2973.25           1526         280.00      1219.75
   93.37        2973.50           1530         216.00       940.74
   93.40        2973.75           1533         171.00       744.57
   93.42        2974.00           1536         148.00       644.30
   93.45        2974.25           1540         114.00       496.08
   93.48        2974.50           1543         104.00       452.49
   93.51        2974.75           1547          89.00       387.10
   93.54        2975.00           1550          85.00       369.66
   93.57        2975.25           1553          82.00       356.59
   93.60        2975.50           1557          83.00       360.95
   93.62        2975.75           1560          81.00       352.23
   93.65        2976.00           1564          82.00       356.59
   93.69        2976.25           1567          80.00       347.87
   93.71        2976.50           1570          68.00       295.56
   93.74        2976.75           1574          80.00       347.87
   93.76        2977.00           1577          85.00       369.66
   93.79        2977.25           1581          75.00       326.07
   93.82        2977.50           1584          76.00       330.43
   93.84        2977.75           1587          82.00       356.59
   93.88        2978.00           1591          92.00       400.18
   93.90        2978.25           1594          84.00       365.31
   93.93        2978.50           1598          81.00       352.23
   93.96        2978.75           1601          75.00       326.07
   93.99        2979.00           1604          80.00       347.87
   94.02        2979.25           1608          77.00       334.79
   94.04        2979.50           1611          80.00       347.87
   94.08        2979.75           1614          75.00       326.07
   94.10        2980.00           1618          82.00       356.59
   94.13        2980.25           1621          86.00       374.02
   94.17        2980.50           1625          74.00       321.71
   94.19        2980.75           1628          75.00       326.07
   94.22        2981.00           1631          77.00       334.79
   94.24        2981.25           1635          79.00       343.51
   94.28        2981.50           1638          79.00       343.51
   94.31        2981.75           1642          77.00       334.79
   94.33        2982.00           1645          76.00       330.43
   94.37        2982.25           1648          72.00       312.99
   94.39        2982.50           1652          81.00       352.23
   94.42        2982.75           1655          76.00       330.43
   94.45        2983.00           1659          79.00       343.51
   94.48        2983.25           1662          75.00       326.07
   94.51        2983.50           1666          72.00       312.99
   94.53        2983.75           1669          76.00       330.43
   94.57        2984.00           1672          72.00       312.99
HS scan finished at 01:34:56
end
