************************************************************
  HS Scan of (1) Internal mercury lamp
************************************************************
Integration time is 0.2294 seconds per sample
dh070418El Arenosillo 37.1 6.73 2.54pr1000
************************************************************
Dead Time -------------------------  3.2E-08 
Number of Cycles Used -------------  4 
Starting Wavelength (Angstroms) ---  2950 
Final Wavelength (Angstoms) -------  2984 
Wavelength Increment (Angstroms) --  .25 
Filter Wheel #1 Position ---------- (1) Ground quartz diffuser (ND=2.32)
Filter Wheel #2 Position ---------- (1) Neutral Density 0.494



************************************************************
HS scan start time = 01:26:24
Dark Count =  .1 


Time (GMT)  Wavelength (Ang)  Step Number  Raw Counts  Counts/Second

   87.02        2950.00           1211          70.00       304.71
   87.23        2950.25           1215          70.00       304.71
   87.26        2950.50           1218          75.00       326.51
   87.29        2950.75           1222          75.00       326.51
   87.32        2951.00           1225          74.00       322.15
   87.35        2951.25           1228          83.00       361.38
   87.38        2951.50           1232          83.00       361.38
   87.40        2951.75           1235          74.00       322.15
   87.44        2952.00           1238          67.00       291.63
   87.47        2952.25           1242          71.00       309.07
   87.49        2952.50           1245          66.00       287.27
   87.52        2952.75           1249          65.00       282.91
   87.55        2953.00           1252          73.00       317.79
   87.58        2953.25           1255          75.00       326.51
   87.61        2953.50           1259          82.00       357.02
   87.64        2953.75           1262          75.00       326.51
   87.67        2954.00           1265          72.00       313.43
   87.69        2954.25           1269          80.00       348.30
   87.72        2954.50           1272          75.00       326.51
   87.75        2954.75           1276          75.00       326.51
   87.78        2955.00           1279          82.00       357.02
   87.81        2955.25           1282          73.00       317.79
   87.84        2955.50           1286          75.00       326.51
   87.87        2955.75           1289          73.00       317.79
   87.90        2956.00           1293          74.00       322.15
   87.92        2956.25           1296          78.00       339.59
   87.96        2956.50           1299          79.00       343.94
   87.99        2956.75           1303          66.00       287.27
   88.01        2957.00           1306          67.00       291.63
   88.04        2957.25           1309          76.00       330.87
   88.07        2957.50           1313          72.00       313.43
   88.10        2957.75           1316          74.00       322.15
   88.12        2958.00           1320          74.00       322.15
   88.16        2958.25           1323          80.00       348.30
   88.19        2958.50           1326          70.00       304.71
   88.21        2958.75           1330          83.00       361.38
   88.24        2959.00           1333          84.00       365.74
   88.26        2959.25           1336          84.00       365.74
   88.29        2959.50           1340          96.00       418.05
   88.32        2959.75           1343         134.00       583.71
   88.35        2960.00           1347         135.00       588.07
   88.38        2960.25           1350         165.00       718.85
   88.40        2960.50           1353         205.00       893.23
   88.43        2960.75           1357         279.00      1215.83
   88.46        2961.00           1360         350.00      1525.36
   88.49        2961.25           1364        1043.00      4546.87
   88.52        2961.50           1367        2884.00     12576.55
   88.55        2961.75           1370        6824.00     29775.09
   88.58        2962.00           1374       15772.00     68904.60
   88.61        2962.25           1377       23943.00    104722.20
   88.63        2962.50           1380       31319.00    137125.70
   88.67        2962.75           1384       42257.00    185301.70
   88.69        2963.00           1387       50674.00    222475.80
   88.72        2963.25           1391       61405.00    269998.90
   88.75        2963.50           1394       68887.00    303219.50
   88.78        2963.75           1397       77174.00    340097.60
   88.81        2964.00           1401       87581.00    386534.10
   88.84        2964.25           1404       95717.00    422934.30
   88.88        2964.50           1408      106876.00    472998.60
   88.90        2964.75           1411      114541.00    507481.10
   88.93        2965.00           1414      122742.00    544460.10
   88.96        2965.25           1418      133206.00    591771.70
   88.99        2965.50           1421      141234.00    628167.60
   89.02        2965.75           1424      148227.00    659941.00
   89.05        2966.00           1428      157989.00    704405.30
   89.08        2966.25           1431      165098.00    736866.30
   89.11        2966.50           1435      170636.00    762201.20
   89.14        2966.75           1438      171319.00    765328.80
   89.16        2967.00           1441      171425.00    765814.10
   89.20        2967.25           1445      171919.00    768076.60
   89.23        2967.50           1448      171710.00    767119.30
   89.25        2967.75           1452      168753.00    753582.30
   89.28        2968.00           1455      164087.00    732245.80
   89.31        2968.25           1458      158472.00    706608.60
   89.34        2968.50           1462      148931.00    663143.30
   89.37        2968.75           1465      141392.00    628884.70
   89.40        2969.00           1469      130685.00    580360.10
   89.43        2969.25           1472      123457.00    547688.30
   89.45        2969.50           1475      115877.00    513499.20
   89.49        2969.75           1479      104022.00    460178.90
   89.52        2970.00           1482       96355.00    425792.30
   89.55        2970.25           1485       88536.00    390802.30
   89.57        2970.50           1489       78016.00    343849.50
   89.61        2970.75           1492       70430.00    310079.50
   89.64        2971.00           1496       60178.00    264557.60
   89.66        2971.25           1499       52066.00    228632.20
   89.69        2971.50           1502       44807.00    196554.50
   89.73        2971.75           1506       34196.00    149782.90
   89.75        2972.00           1509       26618.00    116466.00
   89.78        2972.25           1513       16056.00     70148.13
   89.81        2972.50           1516        8988.00     39229.26
   89.84        2972.75           1519        3454.00     15063.49
   89.87        2973.00           1523         647.00      2820.22
   89.89        2973.25           1526         314.00      1368.41
   89.93        2973.50           1530         283.00      1233.27
   89.95        2973.75           1533         181.00       788.60
   89.98        2974.00           1536         154.00       670.89
   90.01        2974.25           1540         121.00       527.04
   90.04        2974.50           1543         145.00       631.66
   90.07        2974.75           1547         111.00       483.44
   90.09        2975.00           1550          90.00       391.90
   90.13        2975.25           1553          83.00       361.38
   90.15        2975.50           1557          83.00       361.38
   90.18        2975.75           1560          95.00       413.69
   90.21        2976.00           1564          82.00       357.02
   90.24        2976.25           1567          92.00       400.62
   90.27        2976.50           1570          78.00       339.59
   90.29        2976.75           1574          83.00       361.38
   90.33        2977.00           1577          84.00       365.74
   90.36        2977.25           1581          85.00       370.10
   90.38        2977.50           1584          81.00       352.66
   90.41        2977.75           1587          85.00       370.10
   90.44        2978.00           1591          82.00       357.02
   90.47        2978.25           1594          76.00       330.87
   90.50        2978.50           1598          88.00       383.18
   90.53        2978.75           1601          72.00       313.43
   90.56        2979.00           1604          85.00       370.10
   90.58        2979.25           1608          81.00       352.66
   90.61        2979.50           1611          81.00       352.66
   90.65        2979.75           1614          91.00       396.26
   90.67        2980.00           1618          79.00       343.94
   90.70        2980.25           1621          79.00       343.94
   90.73        2980.50           1625          81.00       352.66
   90.76        2980.75           1628          86.00       374.46
   90.79        2981.00           1631          79.00       343.94
   90.81        2981.25           1635          82.00       357.02
   90.85        2981.50           1638          88.00       383.18
   90.87        2981.75           1642          76.00       330.87
   90.90        2982.00           1645          80.00       348.30
   90.93        2982.25           1648          81.00       352.66
   90.96        2982.50           1652          81.00       352.66
   90.99        2982.75           1655          82.00       357.02
   91.01        2983.00           1659          78.00       339.59
   91.04        2983.25           1662          81.00       352.66
   91.08        2983.50           1666          86.00       374.46
   91.10        2983.75           1669          74.00       322.15
   91.13        2984.00           1672          75.00       326.51
HS scan finished at 01:31:30
end
