************************************************************
  HS Scan of (1) Internal mercury lamp
************************************************************
Integration time is 0.2294 seconds per sample
dh140418El Arenosillo 37.1 6.73 2.49pr1000
************************************************************
Dead Time -------------------------  3.2E-08 
Number of Cycles Used -------------  4 
Starting Wavelength (Angstroms) ---  2950 
Final Wavelength (Angstoms) -------  2984 
Wavelength Increment (Angstroms) --  .25 
Filter Wheel #1 Position ---------- (1) Ground quartz diffuser (ND=2.32)
Filter Wheel #2 Position ---------- (1) Neutral Density 0.494



************************************************************
HS scan start time = 01:24:46
Dark Count =  .2 


Time (GMT)  Wavelength (Ang)  Step Number  Raw Counts  Counts/Second

   85.39        2950.00           1211          78.00       339.15
   85.61        2950.25           1215          76.00       330.43
   85.64        2950.50           1218          82.00       356.59
   85.66        2950.75           1222          70.00       304.28
   85.70        2951.00           1225          77.00       334.79
   85.73        2951.25           1228          70.00       304.28
   85.75        2951.50           1232          67.00       291.20
   85.78        2951.75           1235          81.00       352.23
   85.81        2952.00           1238          68.00       295.56
   85.84        2952.25           1242          82.00       356.59
   85.87        2952.50           1245          78.00       339.15
   85.90        2952.75           1249          68.00       295.56
   85.93        2953.00           1252          74.00       321.71
   85.95        2953.25           1255          67.00       291.20
   85.98        2953.50           1259          76.00       330.43
   86.01        2953.75           1262          64.00       278.12
   86.04        2954.00           1265          77.00       334.79
   86.07        2954.25           1269          79.00       343.51
   86.10        2954.50           1272          73.00       317.35
   86.13        2954.75           1276          77.00       334.79
   86.15        2955.00           1279          76.00       330.43
   86.18        2955.25           1282          74.00       321.71
   86.22        2955.50           1286          70.00       304.28
   86.24        2955.75           1289          81.00       352.23
   86.27        2956.00           1293          74.00       321.71
   86.30        2956.25           1296          75.00       326.07
   86.33        2956.50           1299          68.00       295.56
   86.36        2956.75           1303          74.00       321.71
   86.38        2957.00           1306          77.00       334.79
   86.42        2957.25           1309          74.00       321.71
   86.45        2957.50           1313          76.00       330.43
   86.47        2957.75           1316          67.00       291.20
   86.51        2958.00           1320          83.00       360.95
   86.53        2958.25           1323          77.00       334.79
   86.56        2958.50           1326          75.00       326.07
   86.58        2958.75           1330          81.00       352.23
   86.62        2959.00           1333          82.00       356.59
   86.65        2959.25           1336          97.00       421.98
   86.67        2959.50           1340         106.00       461.21
   86.71        2959.75           1343         148.00       644.30
   86.74        2960.00           1347         160.00       696.62
   86.76        2960.25           1350         181.00       788.16
   86.79        2960.50           1353         211.00       918.95
   86.82        2960.75           1357         289.00      1258.99
   86.85        2961.00           1360         312.00      1359.26
   86.88        2961.25           1364         727.00      3168.59
   86.91        2961.50           1367        2173.00      9474.54
   86.94        2961.75           1370        5444.00     23748.64
   86.96        2962.00           1374       13518.00     59038.20
   86.99        2962.25           1377       21301.00     93131.55
   87.03        2962.50           1380       28889.00    126442.60
   87.05        2962.75           1384       40084.00    175718.50
   87.08        2963.00           1387       48560.00    213130.40
   87.11        2963.25           1391       59255.00    260465.30
   87.14        2963.50           1394       66974.00    294718.50
   87.17        2963.75           1397       75513.00    332698.50
   87.20        2964.00           1401       86189.00    380314.50
   87.23        2964.25           1404       93979.00    415151.00
   87.26        2964.50           1408      104780.00    463582.20
   87.29        2964.75           1411      111983.00    495964.50
   87.32        2965.00           1414      120189.00    532938.40
   87.35        2965.25           1418      131301.00    583147.30
   87.38        2965.50           1421      139976.00    622458.10
   87.40        2965.75           1424      146986.00    654297.10
   87.44        2966.00           1428      157535.00    702334.10
   87.47        2966.25           1431      165298.00    737780.10
   87.49        2966.50           1435      171863.00    767819.60
   87.53        2966.75           1438      173486.00    775255.00
   87.55        2967.00           1441      174743.00    781016.10
   87.58        2967.25           1445      174130.00    778206.30
   87.61        2967.50           1448      173834.00    776849.80
   87.64        2967.75           1452      171406.00    765726.60
   87.67        2968.00           1455      166845.00    744853.40
   87.69        2968.25           1458      159410.00    710888.00
   87.73        2968.50           1462      150349.00    669595.10
   87.75        2968.75           1465      142015.00    631712.40
   87.78        2969.00           1469      131236.00    582853.10
   87.81        2969.25           1472      123714.00    548848.30
   87.84        2969.50           1475      115963.00    513886.20
   87.87        2969.75           1479      105552.00    467049.60
   87.90        2970.00           1482       97855.00    432513.40
   87.93        2970.25           1485       90962.00    401649.80
   87.96        2970.50           1489       80635.00    355524.90
   87.99        2970.75           1492       73395.00    323269.30
   88.02        2971.00           1496       63168.00    277819.90
   88.05        2971.25           1499       55187.00    242443.90
   88.08        2971.50           1502       47465.00    208292.20
   88.11        2971.75           1506       35937.00    157446.90
   88.14        2972.00           1509       27657.00    121029.30
   88.17        2972.25           1513       17190.00     75114.08
   88.19        2972.50           1516       10059.00     43909.96
   88.22        2972.75           1519        4301.00     18759.30
   88.26        2973.00           1523         853.00      3717.97
   88.28        2973.25           1526         379.00      1651.35
   88.31        2973.50           1530         232.00      1010.49
   88.34        2973.75           1533         182.00       792.52
   88.37        2974.00           1536         155.00       674.82
   88.40        2974.25           1540         121.00       526.60
   88.42        2974.50           1543         133.00       578.91
   88.46        2974.75           1547          95.00       413.26
   88.48        2975.00           1550         104.00       452.49
   88.51        2975.25           1553          84.00       365.31
   88.54        2975.50           1557          83.00       360.95
   88.57        2975.75           1560          81.00       352.23
   88.60        2976.00           1564          87.00       378.38
   88.62        2976.25           1567          85.00       369.66
   88.66        2976.50           1570          85.00       369.66
   88.68        2976.75           1574          83.00       360.95
   88.71        2977.00           1577          81.00       352.23
   88.74        2977.25           1581          89.00       387.10
   88.77        2977.50           1584          68.00       295.56
   88.80        2977.75           1587          80.00       347.87
   88.82        2978.00           1591          77.00       334.79
   88.86        2978.25           1594          85.00       369.66
   88.88        2978.50           1598          88.00       382.74
   88.91        2978.75           1601          82.00       356.59
   88.95        2979.00           1604          81.00       352.23
   88.97        2979.25           1608          98.00       426.34
   89.00        2979.50           1611          79.00       343.51
   89.03        2979.75           1614          89.00       387.10
   89.06        2980.00           1618          76.00       330.43
   89.09        2980.25           1621          76.00       330.43
   89.11        2980.50           1625          88.00       382.74
   89.15        2980.75           1628          80.00       347.87
   89.18        2981.00           1631          80.00       347.87
   89.20        2981.25           1635          80.00       347.87
   89.23        2981.50           1638          73.00       317.35
   89.26        2981.75           1642          83.00       360.95
   89.29        2982.00           1645          80.00       347.87
   89.32        2982.25           1648          78.00       339.15
   89.35        2982.50           1652          71.00       308.63
   89.38        2982.75           1655          84.00       365.31
   89.40        2983.00           1659          79.00       343.51
   89.43        2983.25           1662          76.00       330.43
   89.47        2983.50           1666          78.00       339.15
   89.49        2983.75           1669          77.00       334.79
   89.52        2984.00           1672          75.00       326.07
HS scan finished at 01:29:53
end
