************************************************************
  HS Scan of (1) Internal mercury lamp
************************************************************
Integration time is 0.2294 seconds per sample
dh210419El Arenosillo 37.1 6.73 2.78pr1000
************************************************************
Dead Time -------------------------  3.2E-08 
Number of Cycles Used -------------  4 
Starting Wavelength (Angstroms) ---  2950 
Final Wavelength (Angstoms) -------  2984 
Wavelength Increment (Angstroms) --  .25 
Filter Wheel #1 Position ---------- (1) Ground quartz diffuser (ND=2.32)
Filter Wheel #2 Position ---------- (1) Neutral Density 0.494



************************************************************
HS scan start time = 01:23:21
Dark Count =  .4 


Time (GMT)  Wavelength (Ang)  Step Number  Raw Counts  Counts/Second

   83.97        2950.00           1211          41.00       176.98
   84.18        2950.25           1215          38.00       163.91
   84.21        2950.50           1218          44.00       190.06
   84.23        2950.75           1222          39.00       168.27
   84.27        2951.00           1225          35.00       150.83
   84.30        2951.25           1228          37.00       159.55
   84.32        2951.50           1232          37.00       159.55
   84.36        2951.75           1235          36.00       155.19
   84.38        2952.00           1238          35.00       150.83
   84.41        2952.25           1242          38.00       163.91
   84.44        2952.50           1245          38.00       163.91
   84.47        2952.75           1249          38.00       163.91
   84.50        2953.00           1252          38.00       163.91
   84.52        2953.25           1255          39.00       168.27
   84.56        2953.50           1259          36.00       155.19
   84.58        2953.75           1262          38.00       163.91
   84.61        2954.00           1265          43.00       185.70
   84.64        2954.25           1269          41.00       176.98
   84.67        2954.50           1272          38.00       163.91
   84.70        2954.75           1276          39.00       168.27
   84.73        2955.00           1279          39.00       168.27
   84.76        2955.25           1282          36.00       155.19
   84.78        2955.50           1286          37.00       159.55
   84.81        2955.75           1289          36.00       155.19
   84.84        2956.00           1293          40.00       172.63
   84.87        2956.25           1296          38.00       163.91
   84.90        2956.50           1299          43.00       185.70
   84.93        2956.75           1303          43.00       185.70
   84.96        2957.00           1306          43.00       185.70
   84.99        2957.25           1309          39.00       168.27
   85.01        2957.50           1313          34.00       146.47
   85.05        2957.75           1316          36.00       155.19
   85.07        2958.00           1320          35.00       150.83
   85.10        2958.25           1323          47.00       203.14
   85.13        2958.50           1326          36.00       155.19
   85.16        2958.75           1330          37.00       159.55
   85.19        2959.00           1333          43.00       185.70
   85.22        2959.25           1336          50.00       216.22
   85.25        2959.50           1340          59.00       255.45
   85.27        2959.75           1343          78.00       338.28
   85.30        2960.00           1347          82.00       355.71
   85.33        2960.25           1350         119.00       517.01
   85.36        2960.50           1353         123.00       534.45
   85.39        2960.75           1357         139.00       604.20
   85.42        2961.00           1360         172.00       748.06
   85.45        2961.25           1364         348.00      1515.33
   85.47        2961.50           1367        1048.00      4567.36
   85.51        2961.75           1370        2904.00     12662.50
   85.54        2962.00           1374        7607.00     33193.92
   85.56        2962.25           1377       12623.00     55121.56
   85.59        2962.50           1380       17195.00     75135.10
   85.62        2962.75           1384       23599.00    103211.30
   85.65        2963.00           1387       28832.00    126191.20
   85.68        2963.25           1391       34900.00    152880.40
   85.71        2963.50           1394       39134.00    171530.10
   85.74        2963.75           1397       44482.00    195118.60
   85.77        2964.00           1401       50802.00    223040.50
   85.80        2964.25           1404       55675.00    244603.70
   85.83        2964.50           1408       62727.00    275862.20
   85.86        2964.75           1411       67661.00    297769.90
   85.89        2965.00           1414       72797.00    320607.20
   85.92        2965.25           1418       79311.00    349620.30
   85.95        2965.50           1421       84162.00    371261.70
   85.97        2965.75           1424       88504.00    390658.00
   86.01        2966.00           1428       94750.00    418602.20
   86.03        2966.25           1431       99159.00    438358.10
   86.06        2966.50           1435      103843.00    459373.90
   86.09        2966.75           1438      105384.00    466294.10
   86.12        2967.00           1441      105942.00    468800.70
   86.15        2967.25           1445      106046.00    469268.00
   86.17        2967.50           1448      105669.00    467574.30
   86.21        2967.75           1452      104201.00    460981.30
   86.23        2968.00           1455      101894.00    450625.80
   86.26        2968.25           1458       97411.00    430522.60
   86.30        2968.50           1462       91271.00    403031.10
   86.32        2968.75           1465       86493.00    381671.60
   86.35        2969.00           1469       80397.00    354462.60
   86.38        2969.25           1472       75749.00    333748.60
   86.41        2969.50           1475       71368.00    314249.80
   86.44        2969.75           1479       64487.00    283673.30
   86.47        2970.00           1482       59847.00    263088.80
   86.49        2970.25           1485       55187.00    242443.00
   86.52        2970.50           1489       48219.00    211622.70
   86.55        2970.75           1492       43752.00    191896.70
   86.58        2971.00           1496       37131.00    162704.60
   86.61        2971.25           1499       32329.00    141566.60
   86.63        2971.50           1502       28148.00    123185.60
   86.67        2971.75           1506       21766.00     95169.96
   86.70        2972.00           1509       16987.00     74224.04
   86.72        2972.25           1513       10325.00     45071.94
   86.75        2972.50           1516        5712.00     24917.86
   86.78        2972.75           1519        2389.00     10415.85
   86.81        2973.00           1523         462.00      2012.34
   86.84        2973.25           1526         209.00       909.36
   86.87        2973.50           1530         147.00       639.07
   86.90        2973.75           1533         148.00       643.43
   86.92        2974.00           1536          90.00       390.59
   86.96        2974.25           1540          67.00       290.33
   86.98        2974.50           1543          52.00       224.94
   87.01        2974.75           1547          57.00       246.73
   87.04        2975.00           1550          54.00       233.65
   87.07        2975.25           1553          52.00       224.94
   87.10        2975.50           1557          55.00       238.01
   87.12        2975.75           1560          49.00       211.86
   87.16        2976.00           1564          47.00       203.14
   87.18        2976.25           1567          43.00       185.70
   87.21        2976.50           1570          48.00       207.50
   87.25        2976.75           1574          48.00       207.50
   87.27        2977.00           1577          48.00       207.50
   87.30        2977.25           1581          54.00       233.65
   87.33        2977.50           1584          48.00       207.50
   87.36        2977.75           1587          50.00       216.22
   87.39        2978.00           1591          44.00       190.06
   87.41        2978.25           1594          51.00       220.58
   87.45        2978.50           1598          39.00       168.27
   87.47        2978.75           1601          42.00       181.34
   87.50        2979.00           1604          42.00       181.34
   87.53        2979.25           1608          45.00       194.42
   87.56        2979.50           1611          44.00       190.06
   87.59        2979.75           1614          50.00       216.22
   87.62        2980.00           1618          47.00       203.14
   87.65        2980.25           1621          44.00       190.06
   87.67        2980.50           1625          50.00       216.22
   87.70        2980.75           1628          48.00       207.50
   87.73        2981.00           1631          46.00       198.78
   87.76        2981.25           1635          47.00       203.14
   87.79        2981.50           1638          51.00       220.58
   87.82        2981.75           1642          47.00       203.14
   87.85        2982.00           1645          51.00       220.58
   87.88        2982.25           1648          43.00       185.70
   87.91        2982.50           1652          43.00       185.70
   87.94        2982.75           1655          46.00       198.78
   87.96        2983.00           1659          46.00       198.78
   87.99        2983.25           1662          39.00       168.27
   88.02        2983.50           1666          43.00       185.70
   88.05        2983.75           1669          36.00       155.19
   88.08        2984.00           1672          44.00       190.06
HS scan finished at 01:28:27
end
