************************************************************
  HS Scan of (1) Internal mercury lamp
************************************************************
Integration time is 0.2294 seconds per sample
dh210418El Arenosillo 37.1 6.73 2.74pr1000
************************************************************
Dead Time -------------------------  3.2E-08 
Number of Cycles Used -------------  4 
Starting Wavelength (Angstroms) ---  2950 
Final Wavelength (Angstoms) -------  2984 
Wavelength Increment (Angstroms) --  .25 
Filter Wheel #1 Position ---------- (1) Ground quartz diffuser (ND=2.32)
Filter Wheel #2 Position ---------- (1) Neutral Density 0.494



************************************************************
HS scan start time = 01:21:54
Dark Count =  .2 


Time (GMT)  Wavelength (Ang)  Step Number  Raw Counts  Counts/Second

   82.51        2950.00           1211          65.00       282.48
   82.73        2950.25           1215          71.00       308.63
   82.76        2950.50           1218          68.00       295.56
   82.79        2950.75           1222          68.00       295.56
   82.81        2951.00           1225          68.00       295.56
   82.85        2951.25           1228          73.00       317.35
   82.87        2951.50           1232          68.00       295.56
   82.90        2951.75           1235          72.00       312.99
   82.93        2952.00           1238          71.00       308.63
   82.96        2952.25           1242          69.00       299.92
   82.99        2952.50           1245          72.00       312.99
   83.01        2952.75           1249          73.00       317.35
   83.04        2953.00           1252          69.00       299.92
   83.07        2953.25           1255          70.00       304.28
   83.10        2953.50           1259          73.00       317.35
   83.13        2953.75           1262          69.00       299.92
   83.16        2954.00           1265          74.00       321.71
   83.19        2954.25           1269          63.00       273.76
   83.22        2954.50           1272          65.00       282.48
   83.24        2954.75           1276          70.00       304.28
   83.27        2955.00           1279          70.00       304.28
   83.30        2955.25           1282          71.00       308.63
   83.33        2955.50           1286          67.00       291.20
   83.36        2955.75           1289          73.00       317.35
   83.39        2956.00           1293          76.00       330.43
   83.42        2956.25           1296          72.00       312.99
   83.44        2956.50           1299          71.00       308.63
   83.47        2956.75           1303          78.00       339.15
   83.50        2957.00           1306          68.00       295.56
   83.53        2957.25           1309          68.00       295.56
   83.56        2957.50           1313          67.00       291.20
   83.58        2957.75           1316          67.00       291.20
   83.61        2958.00           1320          73.00       317.35
   83.63        2958.25           1323          66.00       286.84
   83.66        2958.50           1326          74.00       321.71
   83.69        2958.75           1330          64.00       278.12
   83.72        2959.00           1333          77.00       334.79
   83.75        2959.25           1336          90.00       391.46
   83.78        2959.50           1340         104.00       452.49
   83.80        2959.75           1343         130.00       565.83
   83.84        2960.00           1347         139.00       605.07
   83.86        2960.25           1350         166.00       722.77
   83.89        2960.50           1353         224.00       975.62
   83.91        2960.75           1357         294.00      1280.78
   83.95        2961.00           1360         358.00      1559.80
   83.98        2961.25           1364        1168.00      5091.50
   84.00        2961.50           1367        3215.00     14020.24
   84.03        2961.75           1370        8007.00     34942.27
   84.06        2962.00           1374       18800.00     82167.82
   84.09        2962.25           1377       27645.00    120976.60
   84.12        2962.50           1380       36381.00    159402.10
   84.15        2962.75           1384       48044.00    210850.30
   84.18        2963.00           1387       56866.00    249879.40
   84.21        2963.25           1391       68182.00    300085.90
   84.23        2963.50           1394       76131.00    335450.90
   84.26        2963.75           1397       84933.00    374705.00
   84.30        2964.00           1401       96568.00    426746.20
   84.32        2964.25           1404      105173.00    465347.30
   84.35        2964.50           1408      117175.00    519348.00
   84.38        2964.75           1411      126331.00    560670.50
   84.41        2965.00           1414      135608.00    602652.00
   84.44        2965.25           1418      146936.00    654069.80
   84.47        2965.50           1421      156660.00    698343.80
   84.50        2965.75           1424      165325.00    737903.50
   84.53        2966.00           1428      176180.00    787604.90
   84.56        2966.25           1431      184103.00    823983.00
   84.58        2966.50           1435      190255.00    852288.90
   84.61        2966.75           1438      191201.00    856646.10
   84.63        2967.00           1441      191242.00    856835.00
   84.66        2967.25           1445      191663.00    858774.50
   84.69        2967.50           1448      190089.00    851524.40
   84.72        2967.75           1452      186226.00    833745.20
   84.75        2968.00           1455      180542.00    807622.10
   84.78        2968.25           1458      172873.00    772446.30
   84.80        2968.50           1462      161980.00    722620.00
   84.84        2968.75           1465      153458.00    683751.00
   84.87        2969.00           1469      141604.00    629846.50
   84.89        2969.25           1472      132957.00    590643.70
   84.92        2969.50           1475      124586.00    552786.60
   84.95        2969.75           1479      113234.00    501595.40
   84.98        2970.00           1482      104663.00    463056.70
   85.01        2970.25           1485       97188.00    429524.20
   85.03        2970.50           1489       85897.00    379010.10
   85.07        2970.75           1492       78279.00    345021.10
   85.10        2971.00           1496       66483.00    292537.40
   85.13        2971.25           1499       57455.00    252488.70
   85.15        2971.50           1502       49512.00    217338.10
   85.19        2971.75           1506       36964.00    161969.90
   85.21        2972.00           1509       27841.00    121837.70
   85.24        2972.25           1513       16052.00     70130.19
   85.26        2972.50           1516        8357.00     36471.49
   85.30        2972.75           1519        3077.00     13418.14
   85.33        2973.00           1523         635.00      2767.46
   85.35        2973.25           1526         329.00      1433.37
   85.38        2973.50           1530         266.00      1158.72
   85.41        2973.75           1533         202.00       879.71
   85.44        2974.00           1536         153.00       666.10
   85.47        2974.25           1540         151.00       657.38
   85.50        2974.50           1543         100.00       435.05
   85.53        2974.75           1547          90.00       391.46
   85.56        2975.00           1550          85.00       369.66
   85.58        2975.25           1553          83.00       360.95
   85.61        2975.50           1557          89.00       387.10
   85.64        2975.75           1560          80.00       347.87
   85.67        2976.00           1564          84.00       365.31
   85.70        2976.25           1567          80.00       347.87
   85.73        2976.50           1570          88.00       382.74
   85.76        2976.75           1574          81.00       352.23
   85.78        2977.00           1577          89.00       387.10
   85.81        2977.25           1581          72.00       312.99
   85.84        2977.50           1584          81.00       352.23
   85.87        2977.75           1587          74.00       321.71
   85.90        2978.00           1591          76.00       330.43
   85.92        2978.25           1594          80.00       347.87
   85.95        2978.50           1598          79.00       343.51
   85.98        2978.75           1601          85.00       369.66
   86.01        2979.00           1604          74.00       321.71
   86.04        2979.25           1608          74.00       321.71
   86.07        2979.50           1611          76.00       330.43
   86.09        2979.75           1614          84.00       365.31
   86.12        2980.00           1618          75.00       326.07
   86.15        2980.25           1621          74.00       321.71
   86.18        2980.50           1625          71.00       308.63
   86.21        2980.75           1628          75.00       326.07
   86.23        2981.00           1631          79.00       343.51
   86.26        2981.25           1635          74.00       321.71
   86.29        2981.50           1638          70.00       304.28
   86.32        2981.75           1642          80.00       347.87
   86.35        2982.00           1645          72.00       312.99
   86.37        2982.25           1648          77.00       334.79
   86.41        2982.50           1652          75.00       326.07
   86.43        2982.75           1655          77.00       334.79
   86.46        2983.00           1659          71.00       308.63
   86.49        2983.25           1662          78.00       339.15
   86.52        2983.50           1666          69.00       299.92
   86.55        2983.75           1669          72.00       312.99
   86.58        2984.00           1672          77.00       334.79
HS scan finished at 01:26:57
end
