************************************************************
  HS Scan of (1) Internal mercury lamp
************************************************************
Integration time is 0.2294 seconds per sample
dh280418El Arenosillo 37.1 6.73 2.68pr1000
************************************************************
Dead Time -------------------------  3.2E-08 
Number of Cycles Used -------------  4 
Starting Wavelength (Angstroms) ---  2950 
Final Wavelength (Angstoms) -------  2984 
Wavelength Increment (Angstroms) --  .25 
Filter Wheel #1 Position ---------- (1) Ground quartz diffuser (ND=2.32)
Filter Wheel #2 Position ---------- (1) Neutral Density 0.494



************************************************************
HS scan start time = 01:22:09
Dark Count =  .3 


Time (GMT)  Wavelength (Ang)  Step Number  Raw Counts  Counts/Second

   82.77        2950.00           1211          67.00       290.76
   82.99        2950.25           1215          63.00       273.32
   83.02        2950.50           1218          62.00       268.96
   83.04        2950.75           1222          61.00       264.61
   83.07        2951.00           1225          67.00       290.76
   83.10        2951.25           1228          66.00       286.40
   83.13        2951.50           1232          66.00       286.40
   83.16        2951.75           1235          69.00       299.48
   83.19        2952.00           1238          60.00       260.25
   83.22        2952.25           1242          68.00       295.12
   83.24        2952.50           1245          66.00       286.40
   83.27        2952.75           1249          58.00       251.53
   83.31        2953.00           1252          73.00       316.92
   83.33        2953.25           1255          68.00       295.12
   83.36        2953.50           1259          71.00       308.20
   83.39        2953.75           1262          67.00       290.76
   83.42        2954.00           1265          64.00       277.68
   83.45        2954.25           1269          75.00       325.64
   83.48        2954.50           1272          68.00       295.12
   83.51        2954.75           1276          74.00       321.28
   83.54        2955.00           1279          75.00       325.64
   83.57        2955.25           1282          76.00       329.99
   83.59        2955.50           1286          67.00       290.76
   83.63        2955.75           1289          66.00       286.40
   83.65        2956.00           1293          65.00       282.04
   83.68        2956.25           1296          69.00       299.48
   83.71        2956.50           1299          66.00       286.40
   83.74        2956.75           1303          71.00       308.20
   83.77        2957.00           1306          71.00       308.20
   83.80        2957.25           1309          67.00       290.76
   83.82        2957.50           1313          72.00       312.56
   83.86        2957.75           1316          62.00       268.96
   83.88        2958.00           1320          68.00       295.12
   83.91        2958.25           1323          73.00       316.92
   83.94        2958.50           1326          67.00       290.76
   83.97        2958.75           1330          71.00       308.20
   84.00        2959.00           1333          88.00       382.31
   84.02        2959.25           1336          82.00       356.15
   84.06        2959.50           1340          96.00       417.18
   84.09        2959.75           1343         109.00       473.85
   84.11        2960.00           1347         148.00       643.87
   84.14        2960.25           1350         156.00       678.74
   84.17        2960.50           1353         204.00       887.99
   84.20        2960.75           1357         226.00       983.90
   84.23        2961.00           1360         301.00      1310.87
   84.26        2961.25           1364         857.00      3734.97
   84.29        2961.50           1367        2453.00     10695.47
   84.32        2961.75           1370        6486.00     28298.07
   84.34        2962.00           1374       16253.00     71009.91
   84.38        2962.25           1377       24911.00    108970.00
   84.40        2962.50           1380       32930.00    144211.10
   84.43        2962.75           1384       43684.00    191597.00
   84.46        2963.00           1387       51971.00    228211.10
   84.49        2963.25           1391       62376.00    274305.30
   84.52        2963.50           1394       70036.00    308326.60
   84.55        2963.75           1397       78894.00    347761.90
   84.57        2964.00           1401       89754.00    396246.80
   84.61        2964.25           1404       97911.00    432764.00
   84.64        2964.50           1408      109668.00    485549.20
   84.66        2964.75           1411      117843.00    522358.60
   84.70        2965.00           1414      125871.00    558591.40
   84.73        2965.25           1418      137071.00    609282.50
   84.75        2965.50           1421      145540.00    647723.60
   84.78        2965.75           1424      151947.00    676869.00
   84.82        2966.00           1428      162549.00    725218.40
   84.84        2966.25           1431      170094.00    759719.00
   84.87        2966.50           1435      176762.00    790273.80
   84.89        2966.75           1438      178823.00    799730.10
   84.93        2967.00           1441      179221.00    801557.00
   84.96        2967.25           1445      178857.00    799886.10
   84.98        2967.50           1448      178582.00    798624.10
   85.01        2967.75           1452      176012.00    786834.00
   85.04        2968.00           1455      170417.00    761197.60
   85.07        2968.25           1458      163329.00    728781.50
   85.10        2968.50           1462      152924.00    681318.10
   85.13        2968.75           1465      144809.00    644401.90
   85.16        2969.00           1469      134888.00    599389.20
   85.18        2969.25           1472      127000.00    563693.70
   85.21        2969.50           1475      118888.00    527070.20
   85.25        2969.75           1479      107642.00    476440.30
   85.27        2970.00           1482       99594.00    440309.10
   85.30        2970.25           1485       91451.00    403836.90
   85.33        2970.50           1489       79844.00    351997.10
   85.36        2970.75           1492       71620.00    315371.10
   85.39        2971.00           1496       60825.00    267425.70
   85.42        2971.25           1499       52761.00    231706.00
   85.45        2971.50           1502       44685.00    196015.10
   85.48        2971.75           1506       34302.00    150248.60
   85.50        2972.00           1509       26687.00    116768.10
   85.53        2972.25           1513       16039.00     70072.81
   85.56        2972.50           1516        8723.00     38070.33
   85.59        2972.75           1519        3186.00     13893.27
   85.62        2973.00           1523         583.00      2540.31
   85.64        2973.25           1526         309.00      1345.74
   85.68        2973.50           1530         227.00       988.26
   85.70        2973.75           1533         188.00       818.24
   85.73        2974.00           1536         152.00       661.30
   85.76        2974.25           1540         174.00       757.21
   85.79        2974.50           1543         105.00       456.41
   85.82        2974.75           1547          96.00       417.18
   85.84        2975.00           1550          87.00       377.95
   85.87        2975.25           1553          84.00       364.87
   85.90        2975.50           1557          77.00       334.35
   85.93        2975.75           1560          76.00       329.99
   85.96        2976.00           1564          80.00       347.43
   85.99        2976.25           1567          83.00       360.51
   86.02        2976.50           1570          80.00       347.43
   86.05        2976.75           1574          73.00       316.92
   86.07        2977.00           1577          80.00       347.43
   86.11        2977.25           1581          72.00       312.56
   86.13        2977.50           1584          77.00       334.35
   86.16        2977.75           1587          77.00       334.35
   86.18        2978.00           1591          83.00       360.51
   86.22        2978.25           1594          70.00       303.84
   86.25        2978.50           1598          78.00       338.71
   86.27        2978.75           1601          75.00       325.64
   86.30        2979.00           1604          78.00       338.71
   86.33        2979.25           1608          74.00       321.28
   86.36        2979.50           1611          80.00       347.43
   86.39        2979.75           1614          71.00       308.20
   86.42        2980.00           1618          87.00       377.95
   86.45        2980.25           1621          83.00       360.51
   86.47        2980.50           1625          70.00       303.84
   86.50        2980.75           1628          77.00       334.35
   86.54        2981.00           1631          72.00       312.56
   86.56        2981.25           1635          69.00       299.48
   86.59        2981.50           1638          70.00       303.84
   86.62        2981.75           1642          69.00       299.48
   86.64        2982.00           1645          72.00       312.56
   86.67        2982.25           1648          77.00       334.35
   86.69        2982.50           1652          75.00       325.64
   86.73        2982.75           1655          68.00       295.12
   86.76        2983.00           1659          68.00       295.12
   86.78        2983.25           1662          71.00       308.20
   86.81        2983.50           1666          70.00       303.84
   86.84        2983.75           1669          77.00       334.35
   86.87        2984.00           1672          72.00       312.56
HS scan finished at 01:27:14
end
