************************************************************
  HS Scan of 
************************************************************
Integration time is 0.2294 seconds per sample
dh050517El Arenosillo 37.1 6.73 2.92pr1000
************************************************************
Dead Time -------------------------  3.2E-08 
Number of Cycles Used -------------  4 
Starting Wavelength (Angstroms) ---  2950 
Final Wavelength (Angstoms) -------  2984 
Wavelength Increment (Angstroms) --  .25 
Filter Wheel #1 Position ---------- (1) Ground quartz diffuser (ND=2.32)
Filter Wheel #2 Position ---------- (1) Neutral Density 0.494



************************************************************
HS scan start time = 01:16:42
Dark Count =  .5 


Time (GMT)  Wavelength (Ang)  Step Number  Raw Counts  Counts/Second

   77.35        2950.00           1211           1.00         2.18
   77.56        2950.25           1215           1.00         2.18
   77.59        2950.50           1218           1.00         2.18
   77.62        2950.75           1222           0.00         2.00
   77.65        2951.00           1225           1.00         2.18
   77.67        2951.25           1228           1.00         2.18
   77.70        2951.50           1232           1.00         2.18
   77.73        2951.75           1235           1.00         2.18
   77.76        2952.00           1238           1.00         2.18
   77.79        2952.25           1242           1.00         2.18
   77.81        2952.50           1245           0.00         2.00
   77.85        2952.75           1249           1.00         2.18
   77.88        2953.00           1252           1.00         2.18
   77.90        2953.25           1255           0.00         2.00
   77.93        2953.50           1259           1.00         2.18
   77.96        2953.75           1262           1.00         2.18
   77.99        2954.00           1265           1.00         2.18
   78.01        2954.25           1269           0.00         2.00
   78.04        2954.50           1272           0.00         2.00
   78.08        2954.75           1276           0.00         2.00
   78.10        2955.00           1279           0.00         2.00
   78.13        2955.25           1282           1.00         2.18
   78.16        2955.50           1286           1.00         2.18
   78.19        2955.75           1289           0.00         2.00
   78.22        2956.00           1293           2.00         6.54
   78.24        2956.25           1296           0.00         2.00
   78.27        2956.50           1299           1.00         2.18
   78.30        2956.75           1303           1.00         2.18
   78.33        2957.00           1306           0.00         2.00
   78.36        2957.25           1309           0.00         2.00
   78.39        2957.50           1313           0.00         2.00
   78.42        2957.75           1316           0.00         2.00
   78.44        2958.00           1320           1.00         2.18
   78.47        2958.25           1323           1.00         2.18
   78.50        2958.50           1326           1.00         2.18
   78.53        2958.75           1330           1.00         2.18
   78.56        2959.00           1333           0.00         2.00
   78.58        2959.25           1336           0.00         2.00
   78.62        2959.50           1340           0.00         2.00
   78.64        2959.75           1343           0.00         2.00
   78.67        2960.00           1347           1.00         2.18
   78.70        2960.25           1350           0.00         2.00
   78.73        2960.50           1353           1.00         2.18
   78.76        2960.75           1357           0.00         2.00
   78.78        2961.00           1360           1.00         2.18
   78.81        2961.25           1364           1.00         2.18
   78.85        2961.50           1367           0.00         2.00
   78.87        2961.75           1370           1.00         2.18
   78.90        2962.00           1374           0.00         2.00
   78.93        2962.25           1377           0.00         2.00
   78.96        2962.50           1380           0.00         2.00
   78.99        2962.75           1384           1.00         2.18
   79.02        2963.00           1387           1.00         2.18
   79.05        2963.25           1391           1.00         2.18
   79.08        2963.50           1394           1.00         2.18
   79.10        2963.75           1397           1.00         2.18
   79.13        2964.00           1401           1.00         2.18
   79.16        2964.25           1404           0.00         2.00
   79.20        2964.50           1408           1.00         2.18
   79.22        2964.75           1411           1.00         2.18
   79.25        2965.00           1414           0.00         2.00
   79.28        2965.25           1418           0.00         2.00
   79.31        2965.50           1421           1.00         2.18
   79.34        2965.75           1424           0.00         2.00
   79.36        2966.00           1428           1.00         2.18
   79.40        2966.25           1431           1.00         2.18
   79.43        2966.50           1435           0.00         2.00
   79.45        2966.75           1438           0.00         2.00
   79.48        2967.00           1441           1.00         2.18
   79.52        2967.25           1445           0.00         2.00
   79.54        2967.50           1448           1.00         2.18
   79.57        2967.75           1452           1.00         2.18
   79.59        2968.00           1455           1.00         2.18
   79.63        2968.25           1458           1.00         2.18
   79.66        2968.50           1462           0.00         2.00
   79.68        2968.75           1465           0.00         2.00
   79.71        2969.00           1469           1.00         2.18
   79.74        2969.25           1472           0.00         2.00
   79.77        2969.50           1475           1.00         2.18
   79.80        2969.75           1479           1.00         2.18
   79.83        2970.00           1482           1.00         2.18
   79.86        2970.25           1485           0.00         2.00
   79.89        2970.50           1489           1.00         2.18
   79.91        2970.75           1492           0.00         2.00
   79.93        2971.00           1496           1.00         2.18
   79.96        2971.25           1499           0.00         2.00
   79.99        2971.50           1502           1.00         2.18
   80.02        2971.75           1506           0.00         2.00
   80.05        2972.00           1509           1.00         2.18
   80.08        2972.25           1513           0.00         2.00
   80.10        2972.50           1516           0.00         2.00
   80.13        2972.75           1519           0.00         2.00
   80.16        2973.00           1523           1.00         2.18
   80.19        2973.25           1526           1.00         2.18
   80.22        2973.50           1530           1.00         2.18
   80.24        2973.75           1533           0.00         2.00
   80.28        2974.00           1536           1.00         2.18
   80.30        2974.25           1540           0.00         2.00
   80.33        2974.50           1543           0.00         2.00
   80.36        2974.75           1547           1.00         2.18
   80.39        2975.00           1550           1.00         2.18
   80.42        2975.25           1553           1.00         2.18
   80.44        2975.50           1557           0.00         2.00
   80.47        2975.75           1560           1.00         2.18
   80.51        2976.00           1564           0.00         2.00
   80.53        2976.25           1567           1.00         2.18
   80.56        2976.50           1570           0.00         2.00
   80.59        2976.75           1574           0.00         2.00
   80.62        2977.00           1577           1.00         2.18
   80.64        2977.25           1581           0.00         2.00
   80.67        2977.50           1584           1.00         2.18
   80.71        2977.75           1587           0.00         2.00
   80.73        2978.00           1591           1.00         2.18
   80.76        2978.25           1594           0.00         2.00
   80.78        2978.50           1598           1.00         2.18
   80.82        2978.75           1601           1.00         2.18
   80.85        2979.00           1604           1.00         2.18
   80.87        2979.25           1608           0.00         2.00
   80.90        2979.50           1611           0.00         2.00
   80.93        2979.75           1614           0.00         2.00
   80.96        2980.00           1618           1.00         2.18
   80.99        2980.25           1621           0.00         2.00
   81.02        2980.50           1625           1.00         2.18
   81.05        2980.75           1628           1.00         2.18
   81.07        2981.00           1631           1.00         2.18
   81.10        2981.25           1635           0.00         2.00
   81.13        2981.50           1638           0.00         2.00
   81.16        2981.75           1642           0.00         2.00
   81.19        2982.00           1645           1.00         2.18
   81.21        2982.25           1648           0.00         2.00
   81.24        2982.50           1652           0.00         2.00
   81.27        2982.75           1655           0.00         2.00
   81.29        2983.00           1659           1.00         2.18
   81.32        2983.25           1662           1.00         2.18
   81.35        2983.50           1666           1.00         2.18
   81.38        2983.75           1669           0.00         2.00
   81.41        2984.00           1672           0.00         2.00
HS scan finished at 01:21:46
end
