************************************************************
  HS Scan of (1) Internal mercury lamp
************************************************************
Integration time is 0.2294 seconds per sample
dh120518El Arenosillo 37.1 6.73 2.7pr1000
************************************************************
Dead Time -------------------------  3.2E-08 
Number of Cycles Used -------------  4 
Starting Wavelength (Angstroms) ---  2950 
Final Wavelength (Angstoms) -------  2984 
Wavelength Increment (Angstroms) --  .25 
Filter Wheel #1 Position ---------- (1) Ground quartz diffuser (ND=2.32)
Filter Wheel #2 Position ---------- (1) Neutral Density 0.494



************************************************************
HS scan start time = 01:23:03
Dark Count =  .4 


Time (GMT)  Wavelength (Ang)  Step Number  Raw Counts  Counts/Second

   83.67        2950.00           1211          61.00       264.17
   83.89        2950.25           1215          63.00       272.89
   83.91        2950.50           1218          61.00       264.17
   83.94        2950.75           1222          65.00       281.61
   83.97        2951.00           1225          70.00       303.40
   84.00        2951.25           1228          64.00       277.25
   84.03        2951.50           1232          59.00       255.45
   84.05        2951.75           1235          62.00       268.53
   84.09        2952.00           1238          62.00       268.53
   84.12        2952.25           1242          62.00       268.53
   84.14        2952.50           1245          65.00       281.61
   84.17        2952.75           1249          67.00       290.33
   84.20        2953.00           1252          61.00       264.17
   84.23        2953.25           1255          60.00       259.81
   84.26        2953.50           1259          69.00       299.04
   84.28        2953.75           1262          56.00       242.37
   84.32        2954.00           1265          58.00       251.09
   84.35        2954.25           1269          67.00       290.33
   84.37        2954.50           1272          60.00       259.81
   84.40        2954.75           1276          65.00       281.61
   84.43        2955.00           1279          63.00       272.89
   84.46        2955.25           1282          65.00       281.61
   84.49        2955.50           1286          64.00       277.25
   84.52        2955.75           1289          66.00       285.97
   84.55        2956.00           1293          61.00       264.17
   84.57        2956.25           1296          67.00       290.33
   84.60        2956.50           1299          66.00       285.97
   84.64        2956.75           1303          61.00       264.17
   84.66        2957.00           1306          59.00       255.45
   84.69        2957.25           1309          67.00       290.33
   84.71        2957.50           1313          71.00       307.76
   84.75        2957.75           1316          60.00       259.81
   84.78        2958.00           1320          61.00       264.17
   84.80        2958.25           1323          69.00       299.04
   84.83        2958.50           1326          70.00       303.40
   84.87        2958.75           1330          70.00       303.40
   84.89        2959.00           1333          72.00       312.12
   84.92        2959.25           1336          97.00       421.10
   84.95        2959.50           1340          94.00       408.03
   84.98        2959.75           1343         123.00       534.45
   85.01        2960.00           1347         154.00       669.59
   85.03        2960.25           1350         172.00       748.06
   85.07        2960.50           1353         245.00      1066.30
   85.09        2960.75           1357         264.00      1149.13
   85.12        2961.00           1360         409.00      1781.27
   85.15        2961.25           1364        1463.00      6377.06
   85.18        2961.50           1367        3955.00     17248.40
   85.21        2961.75           1370        8805.00     38428.22
   85.23        2962.00           1374       17860.00     78048.22
   85.26        2962.25           1377       25799.00    112868.10
   85.30        2962.50           1380       33500.00    146718.60
   85.32        2962.75           1384       43528.00    190908.10
   85.35        2963.00           1387       51315.00    225309.20
   85.38        2963.25           1391       61762.00    271581.10
   85.41        2963.50           1394       69982.00    308086.10
   85.44        2963.75           1397       77477.00    341446.30
   85.46        2964.00           1401       87065.00    384227.10
   85.50        2964.25           1404       94713.00    418436.50
   85.53        2964.50           1408      104319.00    461511.10
   85.56        2964.75           1411      112244.00    497138.20
   85.59        2965.00           1414      119899.00    531629.40
   85.62        2965.25           1418      130382.00    578987.80
   85.65        2965.50           1421      138156.00    614201.50
   85.67        2965.75           1424      146774.00    653332.40
   85.71        2966.00           1428      156375.00    697043.60
   85.73        2966.25           1431      161193.00    719025.50
   85.76        2966.50           1435      165632.00    739306.00
   85.78        2966.75           1438      166367.00    742666.60
   85.82        2967.00           1441      166555.00    743526.30
   85.85        2967.25           1445      166339.00    742538.60
   85.87        2967.50           1448      165198.00    737322.00
   85.90        2967.75           1452      160871.00    717555.40
   85.93        2968.00           1455      154228.00    687258.00
   85.96        2968.25           1458      147749.00    657765.70
   85.99        2968.50           1462      137795.00    612564.50
   86.02        2968.75           1465      130154.00    577956.10
   86.05        2969.00           1469      120720.00    535333.10
   86.07        2969.25           1472      113001.00    500545.60
   86.10        2969.50           1475      105966.00    468908.60
   86.13        2969.75           1479       96183.00    425020.50
   86.16        2970.00           1482       89047.00    393085.30
   86.19        2970.25           1485       82612.00    364343.60
   86.22        2970.50           1489       73001.00    321515.00
   86.25        2970.75           1492       65486.00    288108.70
   86.28        2971.00           1496       55584.00    244200.80
   86.31        2971.25           1499       47916.00    210283.90
   86.33        2971.50           1502       40058.00    175603.00
   86.37        2971.75           1506       29147.00    127575.60
   86.39        2972.00           1509       18163.00     79375.73
   86.41        2972.25           1513       11900.00     51959.03
   86.44        2972.50           1516        5661.00     24695.18
   86.47        2972.75           1519        1889.00      8234.95
   86.49        2973.00           1523         439.00      1912.06
   86.52        2973.25           1526         273.00      1188.36
   86.56        2973.50           1530         210.00       913.71
   86.58        2973.75           1533         167.00       726.26
   86.61        2974.00           1536         132.00       573.68
   86.64        2974.25           1540         104.00       451.62
   86.67        2974.50           1543          88.00       381.87
   86.70        2974.75           1547          75.00       325.20
   86.73        2975.00           1550          79.00       342.64
   86.75        2975.25           1553          83.00       360.07
   86.78        2975.50           1557          73.00       316.48
   86.81        2975.75           1560          79.00       342.64
   86.83        2976.00           1564          77.00       333.92
   86.87        2976.25           1567          73.00       316.48
   86.89        2976.50           1570          71.00       307.76
   86.92        2976.75           1574          69.00       299.04
   86.95        2977.00           1577          83.00       360.07
   86.98        2977.25           1581          77.00       333.92
   87.01        2977.50           1584          77.00       333.92
   87.03        2977.75           1587          78.00       338.28
   87.06        2978.00           1591          69.00       299.04
   87.09        2978.25           1594          68.00       294.68
   87.12        2978.50           1598          81.00       351.36
   87.15        2978.75           1601          77.00       333.92
   87.18        2979.00           1604          69.00       299.04
   87.21        2979.25           1608          68.00       294.68
   87.24        2979.50           1611          65.00       281.61
   87.26        2979.75           1614          73.00       316.48
   87.30        2980.00           1618          75.00       325.20
   87.32        2980.25           1621          86.00       373.15
   87.35        2980.50           1625          68.00       294.68
   87.38        2980.75           1628          79.00       342.64
   87.41        2981.00           1631          68.00       294.68
   87.44        2981.25           1635          71.00       307.76
   87.46        2981.50           1638          77.00       333.92
   87.49        2981.75           1642          66.00       285.97
   87.53        2982.00           1645          65.00       281.61
   87.55        2982.25           1648          69.00       299.04
   87.58        2982.50           1652          71.00       307.76
   87.61        2982.75           1655          70.00       303.40
   87.64        2983.00           1659          71.00       307.76
   87.67        2983.25           1662          67.00       290.33
   87.69        2983.50           1666          74.00       320.84
   87.73        2983.75           1669          66.00       285.97
   87.75        2984.00           1672          69.00       299.04
HS scan finished at 01:28:07
end
