************************************************************
  HS Scan of 
************************************************************
Integration time is 0.2294 seconds per sample
dh120517El Arenosillo 37.1 6.73 2.84pr1000
************************************************************
Dead Time -------------------------  3.2E-08 
Number of Cycles Used -------------  4 
Starting Wavelength (Angstroms) ---  2950 
Final Wavelength (Angstoms) -------  2984 
Wavelength Increment (Angstroms) --  .25 
Filter Wheel #1 Position ---------- (1) Ground quartz diffuser (ND=2.32)
Filter Wheel #2 Position ---------- (1) Neutral Density 0.494



************************************************************
HS scan start time = 01:16:45
Dark Count =  .5 


Time (GMT)  Wavelength (Ang)  Step Number  Raw Counts  Counts/Second

   77.39        2950.00           1211           1.00         2.18
   77.60        2950.25           1215           0.00         2.00
   77.63        2950.50           1218           1.00         2.18
   77.66        2950.75           1222           0.00         2.00
   77.69        2951.00           1225           1.00         2.18
   77.71        2951.25           1228           0.00         2.00
   77.75        2951.50           1232           1.00         2.18
   77.77        2951.75           1235           0.00         2.00
   77.80        2952.00           1238           1.00         2.18
   77.84        2952.25           1242           2.00         6.54
   77.86        2952.50           1245           1.00         2.18
   77.89        2952.75           1249           0.00         2.00
   77.92        2953.00           1252           0.00         2.00
   77.95        2953.25           1255           1.00         2.18
   77.98        2953.50           1259           1.00         2.18
   78.00        2953.75           1262           0.00         2.00
   78.04        2954.00           1265           0.00         2.00
   78.06        2954.25           1269           0.00         2.00
   78.09        2954.50           1272           1.00         2.18
   78.12        2954.75           1276           0.00         2.00
   78.15        2955.00           1279           0.00         2.00
   78.18        2955.25           1282           1.00         2.18
   78.21        2955.50           1286           1.00         2.18
   78.24        2955.75           1289           0.00         2.00
   78.27        2956.00           1293           0.00         2.00
   78.29        2956.25           1296           0.00         2.00
   78.33        2956.50           1299           0.00         2.00
   78.35        2956.75           1303           1.00         2.18
   78.38        2957.00           1306           1.00         2.18
   78.41        2957.25           1309           0.00         2.00
   78.44        2957.50           1313           1.00         2.18
   78.47        2957.75           1316           1.00         2.18
   78.49        2958.00           1320           1.00         2.18
   78.53        2958.25           1323           0.00         2.00
   78.55        2958.50           1326           1.00         2.18
   78.58        2958.75           1330           0.00         2.00
   78.62        2959.00           1333           1.00         2.18
   78.64        2959.25           1336           1.00         2.18
   78.67        2959.50           1340           0.00         2.00
   78.69        2959.75           1343           2.00         6.54
   78.73        2960.00           1347           1.00         2.18
   78.76        2960.25           1350           0.00         2.00
   78.78        2960.50           1353           0.00         2.00
   78.82        2960.75           1357           1.00         2.18
   78.84        2961.00           1360           0.00         2.00
   78.87        2961.25           1364           0.00         2.00
   78.90        2961.50           1367           1.00         2.18
   78.93        2961.75           1370           0.00         2.00
   78.96        2962.00           1374           1.00         2.18
   78.99        2962.25           1377           0.00         2.00
   79.02        2962.50           1380           0.00         2.00
   79.05        2962.75           1384           0.00         2.00
   79.07        2963.00           1387           0.00         2.00
   79.11        2963.25           1391           0.00         2.00
   79.13        2963.50           1394           1.00         2.18
   79.16        2963.75           1397           0.00         2.00
   79.19        2964.00           1401           1.00         2.18
   79.22        2964.25           1404           0.00         2.00
   79.25        2964.50           1408           0.00         2.00
   79.27        2964.75           1411           1.00         2.18
   79.31        2965.00           1414           1.00         2.18
   79.34        2965.25           1418           0.00         2.00
   79.36        2965.50           1421           1.00         2.18
   79.40        2965.75           1424           1.00         2.18
   79.42        2966.00           1428           0.00         2.00
   79.45        2966.25           1431           1.00         2.18
   79.48        2966.50           1435           0.00         2.00
   79.51        2966.75           1438           0.00         2.00
   79.54        2967.00           1441           1.00         2.18
   79.56        2967.25           1445           1.00         2.18
   79.60        2967.50           1448           0.00         2.00
   79.63        2967.75           1452           1.00         2.18
   79.65        2968.00           1455           0.00         2.00
   79.68        2968.25           1458           2.00         6.54
   79.71        2968.50           1462           0.00         2.00
   79.74        2968.75           1465           1.00         2.18
   79.77        2969.00           1469           0.00         2.00
   79.80        2969.25           1472           2.00         6.54
   79.83        2969.50           1475           0.00         2.00
   79.85        2969.75           1479           1.00         2.18
   79.89        2970.00           1482           0.00         2.00
   79.92        2970.25           1485           0.00         2.00
   79.94        2970.50           1489           1.00         2.18
   79.97        2970.75           1492           2.00         6.54
   80.01        2971.00           1496           0.00         2.00
   80.03        2971.25           1499           0.00         2.00
   80.06        2971.50           1502           0.00         2.00
   80.10        2971.75           1506           0.00         2.00
   80.13        2972.00           1509           0.00         2.00
   80.15        2972.25           1513           0.00         2.00
   80.18        2972.50           1516           1.00         2.18
   80.21        2972.75           1519           1.00         2.18
   80.24        2973.00           1523           0.00         2.00
   80.27        2973.25           1526           0.00         2.00
   80.30        2973.50           1530           0.00         2.00
   80.33        2973.75           1533           0.00         2.00
   80.35        2974.00           1536           0.00         2.00
   80.39        2974.25           1540           0.00         2.00
   80.42        2974.50           1543           1.00         2.18
   80.44        2974.75           1547           0.00         2.00
   80.47        2975.00           1550           1.00         2.18
   80.50        2975.25           1553           0.00         2.00
   80.53        2975.50           1557           0.00         2.00
   80.56        2975.75           1560           1.00         2.18
   80.59        2976.00           1564           0.00         2.00
   80.62        2976.25           1567           0.00         2.00
   80.64        2976.50           1570           0.00         2.00
   80.68        2976.75           1574           1.00         2.18
   80.71        2977.00           1577           0.00         2.00
   80.73        2977.25           1581           1.00         2.18
   80.76        2977.50           1584           0.00         2.00
   80.79        2977.75           1587           1.00         2.18
   80.82        2978.00           1591           0.00         2.00
   80.85        2978.25           1594           0.00         2.00
   80.88        2978.50           1598           1.00         2.18
   80.91        2978.75           1601           1.00         2.18
   80.93        2979.00           1604           1.00         2.18
   80.96        2979.25           1608           0.00         2.00
   80.99        2979.50           1611           0.00         2.00
   81.02        2979.75           1614           1.00         2.18
   81.05        2980.00           1618           1.00         2.18
   81.08        2980.25           1621           1.00         2.18
   81.11        2980.50           1625           2.00         6.54
   81.13        2980.75           1628           0.00         2.00
   81.16        2981.00           1631           1.00         2.18
   81.20        2981.25           1635           1.00         2.18
   81.22        2981.50           1638           0.00         2.00
   81.25        2981.75           1642           1.00         2.18
   81.28        2982.00           1645           0.00         2.00
   81.31        2982.25           1648           1.00         2.18
   81.34        2982.50           1652           1.00         2.18
   81.36        2982.75           1655           0.00         2.00
   81.39        2983.00           1659           0.00         2.00
   81.41        2983.25           1662           1.00         2.18
   81.44        2983.50           1666           0.00         2.00
   81.48        2983.75           1669           0.00         2.00
   81.50        2984.00           1672           1.00         2.18
HS scan finished at 01:21:52
end
