************************************************************
  HS Scan of (1) Internal mercury lamp
************************************************************
Integration time is 0.2294 seconds per sample
dh190518El Arenosillo 37.1 6.73 2.78pr1000
************************************************************
Dead Time -------------------------  3.2E-08 
Number of Cycles Used -------------  4 
Starting Wavelength (Angstroms) ---  2950 
Final Wavelength (Angstoms) -------  2984 
Wavelength Increment (Angstroms) --  .25 
Filter Wheel #1 Position ---------- (1) Ground quartz diffuser (ND=2.32)
Filter Wheel #2 Position ---------- (1) Neutral Density 0.494



************************************************************
HS scan start time = 01:21:32
Dark Count =  .5 


Time (GMT)  Wavelength (Ang)  Step Number  Raw Counts  Counts/Second

   82.15        2950.00           1211          60.00       259.37
   82.37        2950.25           1215          59.00       255.02
   82.40        2950.50           1218          54.00       233.22
   82.42        2950.75           1222          59.00       255.02
   82.46        2951.00           1225          59.00       255.02
   82.49        2951.25           1228          63.00       272.45
   82.51        2951.50           1232          61.00       263.73
   82.54        2951.75           1235          62.00       268.09
   82.57        2952.00           1238          64.00       276.81
   82.60        2952.25           1242          67.00       289.89
   82.63        2952.50           1245          62.00       268.09
   82.66        2952.75           1249          59.00       255.02
   82.69        2953.00           1252          57.00       246.30
   82.72        2953.25           1255          59.00       255.02
   82.74        2953.50           1259          58.00       250.66
   82.78        2953.75           1262          59.00       255.02
   82.80        2954.00           1265          67.00       289.89
   82.83        2954.25           1269          60.00       259.37
   82.86        2954.50           1272          53.00       228.86
   82.89        2954.75           1276          57.00       246.30
   82.92        2955.00           1279          63.00       272.45
   82.94        2955.25           1282          54.00       233.22
   82.98        2955.50           1286          60.00       259.37
   83.00        2955.75           1289          57.00       246.30
   83.03        2956.00           1293          64.00       276.81
   83.07        2956.25           1296          67.00       289.89
   83.09        2956.50           1299          60.00       259.37
   83.12        2956.75           1303          63.00       272.45
   83.15        2957.00           1306          60.00       259.37
   83.18        2957.25           1309          56.00       241.94
   83.21        2957.50           1313          67.00       289.89
   83.23        2957.75           1316          59.00       255.02
   83.27        2958.00           1320          65.00       281.17
   83.29        2958.25           1323          59.00       255.02
   83.32        2958.50           1326          59.00       255.02
   83.35        2958.75           1330          57.00       246.30
   83.38        2959.00           1333          63.00       272.45
   83.41        2959.25           1336          81.00       350.92
   83.43        2959.50           1340          89.00       385.79
   83.47        2959.75           1343         106.00       459.90
   83.50        2960.00           1347         163.00       708.39
   83.52        2960.25           1350         148.00       642.99
   83.55        2960.50           1353         186.00       808.65
   83.58        2960.75           1357         222.00       965.59
   83.61        2961.00           1360         335.00      1458.22
   83.64        2961.25           1364        1160.00      5055.31
   83.67        2961.50           1367        3141.00     13696.06
   83.70        2961.75           1370        7319.00     31935.41
   83.73        2962.00           1374       16268.00     71074.72
   83.75        2962.25           1377       23661.00    103482.90
   83.79        2962.50           1380       30490.00    133478.70
   83.81        2962.75           1384       40347.00    176876.70
   83.84        2963.00           1387       48632.00    213447.30
   83.87        2963.25           1391       58524.00    257224.10
   83.90        2963.50           1394       66152.00    291065.90
   83.93        2963.75           1397       74284.00    327225.10
   83.96        2964.00           1401       85289.00    376293.40
   83.99        2964.25           1404       93079.00    411120.90
   84.02        2964.50           1408      103759.00    458996.30
   84.05        2964.75           1411      112050.00    496264.70
   84.08        2965.00           1414      120296.00    533419.80
   84.11        2965.25           1418      129936.00    576969.50
   84.13        2965.50           1421      133921.00    595007.90
   84.16        2965.75           1424      144943.00    645009.80
   84.19        2966.00           1428      154476.00    688387.60
   84.22        2966.25           1431      160735.00    716934.10
   84.25        2966.50           1435      166243.00    742099.20
   84.28        2966.75           1438      167031.00    745702.60
   84.31        2967.00           1441      167597.00    748291.60
   84.33        2967.25           1445      167186.00    746411.60
   84.36        2967.50           1448      166385.00    742748.50
   84.39        2967.75           1452      163483.00    729484.10
   84.42        2968.00           1455      158661.00    707469.10
   84.45        2968.25           1458      152068.00    677419.10
   84.48        2968.50           1462      142807.00    635307.10
   84.51        2968.75           1465      135996.00    604409.00
   84.53        2969.00           1469      125988.00    559119.10
   84.56        2969.25           1472      119293.00    528895.70
   84.60        2969.50           1475      111130.00    492124.80
   84.62        2969.75           1479      101016.00    446686.10
   84.65        2970.00           1482       93237.00    411828.10
   84.69        2970.25           1485       85646.00    377887.70
   84.72        2970.50           1489       75082.00    330777.90
   84.74        2970.75           1492       68022.00    299373.50
   84.77        2971.00           1496       57544.00    252881.70
   84.81        2971.25           1499       49741.00    218349.00
   84.83        2971.50           1502       42521.00    186464.60
   84.86        2971.75           1506       32299.00    141434.20
   84.89        2972.00           1509       24886.00    108859.40
   84.92        2972.25           1513       15136.00     66118.38
   84.95        2972.50           1516        8537.00     37256.68
   84.97        2972.75           1519        3417.00     14900.30
   85.01        2973.00           1523         646.00      2814.12
   85.04        2973.25           1526         310.00      1349.23
   85.06        2973.50           1530         241.00      1048.42
   85.10        2973.75           1533         176.00       765.06
   85.12        2974.00           1536         149.00       647.35
   85.15        2974.25           1540         110.00       477.34
   85.17        2974.50           1543         115.00       499.14
   85.21        2974.75           1547          79.00       342.20
   85.24        2975.00           1550          80.00       346.56
   85.26        2975.25           1553          78.00       337.84
   85.30        2975.50           1557          67.00       289.89
   85.32        2975.75           1560          76.00       329.12
   85.35        2976.00           1564          62.00       268.09
   85.38        2976.25           1567          68.00       294.25
   85.41        2976.50           1570          70.00       302.97
   85.44        2976.75           1574          70.00       302.97
   85.46        2977.00           1577          75.00       324.76
   85.50        2977.25           1581          66.00       285.53
   85.52        2977.50           1584          70.00       302.97
   85.55        2977.75           1587          77.00       333.48
   85.58        2978.00           1591          57.00       246.30
   85.61        2978.25           1594          69.00       298.61
   85.64        2978.50           1598          65.00       281.17
   85.66        2978.75           1601          75.00       324.76
   85.70        2979.00           1604          70.00       302.97
   85.73        2979.25           1608          69.00       298.61
   85.75        2979.50           1611          71.00       307.33
   85.78        2979.75           1614          76.00       329.12
   85.81        2980.00           1618          67.00       289.89
   85.84        2980.25           1621          71.00       307.33
   85.87        2980.50           1625          70.00       302.97
   85.90        2980.75           1628          68.00       294.25
   85.93        2981.00           1631          66.00       285.53
   85.95        2981.25           1635          77.00       333.48
   85.98        2981.50           1638          70.00       302.97
   86.01        2981.75           1642          74.00       320.40
   86.04        2982.00           1645          63.00       272.45
   86.07        2982.25           1648          66.00       285.53
   86.10        2982.50           1652          69.00       298.61
   86.13        2982.75           1655          61.00       263.73
   86.15        2983.00           1659          63.00       272.45
   86.18        2983.25           1662          64.00       276.81
   86.21        2983.50           1666          65.00       281.17
   86.24        2983.75           1669          66.00       285.53
   86.27        2984.00           1672          69.00       298.61
HS scan finished at 01:26:39
end
