************************************************************
  HS Scan of (1) Internal mercury lamp
************************************************************
Integration time is 0.2294 seconds per sample
dh190519El Arenosillo 37.1 6.73 2.78pr1000
************************************************************
Dead Time -------------------------  3.2E-08 
Number of Cycles Used -------------  4 
Starting Wavelength (Angstroms) ---  2950 
Final Wavelength (Angstoms) -------  2984 
Wavelength Increment (Angstroms) --  .25 
Filter Wheel #1 Position ---------- (1) Ground quartz diffuser (ND=2.32)
Filter Wheel #2 Position ---------- (1) Neutral Density 0.494



************************************************************
HS scan start time = 01:23:36
Dark Count =  .5 


Time (GMT)  Wavelength (Ang)  Step Number  Raw Counts  Counts/Second

   84.24        2950.00           1211          39.00       167.83
   84.45        2950.25           1215          47.00       202.70
   84.48        2950.50           1218          39.00       167.83
   84.51        2950.75           1222          45.00       193.99
   84.54        2951.00           1225          40.00       172.19
   84.56        2951.25           1228          37.00       159.11
   84.60        2951.50           1232          42.00       180.91
   84.62        2951.75           1235          41.00       176.55
   84.65        2952.00           1238          37.00       159.11
   84.68        2952.25           1242          40.00       172.19
   84.71        2952.50           1245          43.00       185.27
   84.74        2952.75           1249          40.00       172.19
   84.77        2953.00           1252          38.00       163.47
   84.80        2953.25           1255          39.00       167.83
   84.83        2953.50           1259          43.00       185.27
   84.86        2953.75           1262          43.00       185.27
   84.89        2954.00           1265          42.00       180.91
   84.91        2954.25           1269          45.00       193.99
   84.95        2954.50           1272          40.00       172.19
   84.97        2954.75           1276          47.00       202.70
   85.00        2955.00           1279          39.00       167.83
   85.03        2955.25           1282          45.00       193.99
   85.06        2955.50           1286          46.00       198.34
   85.09        2955.75           1289          40.00       172.19
   85.12        2956.00           1293          41.00       176.55
   85.15        2956.25           1296          43.00       185.27
   85.17        2956.50           1299          43.00       185.27
   85.21        2956.75           1303          44.00       189.63
   85.24        2957.00           1306          40.00       172.19
   85.26        2957.25           1309          45.00       193.99
   85.30        2957.50           1313          46.00       198.34
   85.32        2957.75           1316          44.00       189.63
   85.35        2958.00           1320          51.00       220.14
   85.38        2958.25           1323          45.00       193.99
   85.41        2958.50           1326          47.00       202.70
   85.44        2958.75           1330          45.00       193.99
   85.47        2959.00           1333          50.00       215.78
   85.50        2959.25           1336          63.00       272.45
   85.52        2959.50           1340          69.00       298.61
   85.56        2959.75           1343          79.00       342.20
   85.59        2960.00           1347         103.00       446.82
   85.61        2960.25           1350         135.00       586.32
   85.65        2960.50           1353         142.00       616.84
   85.67        2960.75           1357         165.00       717.10
   85.70        2961.00           1360         234.00      1017.91
   85.73        2961.25           1364         780.00      3398.36
   85.76        2961.50           1367        2182.00      9512.49
   85.79        2961.75           1370        4803.00     20949.09
   85.82        2962.00           1374       10645.00     46470.54
   85.85        2962.25           1377       15801.00     69029.83
   85.87        2962.50           1380       21445.00     93761.72
   85.91        2962.75           1384       28608.00    125206.40
   85.93        2963.00           1387       33938.00    148645.70
   85.96        2963.25           1391       41094.00    180170.50
   86.00        2963.50           1394       46796.00    205335.60
   86.02        2963.75           1397       51894.00    227869.60
   86.05        2964.00           1401       58759.00    258265.60
   86.09        2964.25           1404       63984.00    281440.10
   86.12        2964.50           1408       71018.00    312692.60
   86.14        2964.75           1411       76618.00    337618.80
   86.18        2965.00           1414       81799.00    360715.60
   86.20        2965.25           1418       88634.00    391238.60
   86.23        2965.50           1421       94353.00    416824.10
   86.26        2965.75           1424      100350.00    443698.70
   86.29        2966.00           1428      107454.00    475594.40
   86.32        2966.25           1431      111458.00    493600.60
   86.35        2966.50           1435      115130.00    510132.20
   86.38        2966.75           1438      115617.00    512326.10
   86.40        2967.00           1441      115834.00    513303.70
   86.44        2967.25           1445      116092.00    514466.20
   86.47        2967.50           1448      115558.00    512060.20
   86.49        2967.75           1452      113219.00    501526.60
   86.53        2968.00           1455      109928.00    486717.70
   86.55        2968.25           1458      105143.00    465211.20
   86.58        2968.50           1462       98554.00    435645.30
   86.61        2968.75           1465       93134.00    411367.00
   86.64        2969.00           1469       86077.00    379812.80
   86.67        2969.25           1472       81006.00    357178.20
   86.70        2969.50           1475       76164.00    335596.50
   86.73        2969.75           1479       69195.00    304586.90
   86.76        2970.00           1482       64403.00    283299.90
   86.79        2970.25           1485       59430.00    261239.70
   86.82        2970.50           1489       52902.00    232329.00
   86.85        2970.75           1492       48011.00    210703.20
   86.88        2971.00           1496       40994.00    179729.50
   86.91        2971.25           1499       35502.00    155530.20
   86.94        2971.50           1502       29943.00    131073.90
   86.97        2971.75           1506       23043.00    100771.30
   87.00        2972.00           1509       17616.00     76978.85
   87.02        2972.25           1513       10512.00     45889.05
   87.06        2972.50           1516        5819.00     25384.61
   87.08        2972.75           1519        2415.00     10528.83
   87.11        2973.00           1523         514.00      2238.61
   87.14        2973.25           1526         202.00       878.40
   87.17        2973.50           1530         143.00       621.20
   87.20        2973.75           1533         114.00       494.78
   87.23        2974.00           1536          89.00       385.79
   87.26        2974.25           1540          74.00       320.40
   87.28        2974.50           1543          62.00       268.09
   87.32        2974.75           1547          57.00       246.30
   87.35        2975.00           1550          50.00       215.78
   87.37        2975.25           1553          53.00       228.86
   87.41        2975.50           1557          51.00       220.14
   87.43        2975.75           1560          49.00       211.42
   87.46        2976.00           1564          51.00       220.14
   87.49        2976.25           1567          54.00       233.22
   87.52        2976.50           1570          45.00       193.99
   87.55        2976.75           1574          46.00       198.34
   87.58        2977.00           1577          49.00       211.42
   87.61        2977.25           1581          50.00       215.78
   87.63        2977.50           1584          52.00       224.50
   87.67        2977.75           1587          54.00       233.22
   87.70        2978.00           1591          60.00       259.37
   87.72        2978.25           1594          52.00       224.50
   87.76        2978.50           1598          49.00       211.42
   87.78        2978.75           1601          46.00       198.34
   87.81        2979.00           1604          56.00       241.94
   87.84        2979.25           1608          51.00       220.14
   87.87        2979.50           1611          49.00       211.42
   87.90        2979.75           1614          55.00       237.58
   87.93        2980.00           1618          51.00       220.14
   87.96        2980.25           1621          41.00       176.55
   87.98        2980.50           1625          46.00       198.34
   88.02        2980.75           1628          47.00       202.70
   88.05        2981.00           1631          51.00       220.14
   88.07        2981.25           1635          50.00       215.78
   88.11        2981.50           1638          60.00       259.37
   88.13        2981.75           1642          51.00       220.14
   88.16        2982.00           1645          50.00       215.78
   88.19        2982.25           1648          44.00       189.63
   88.22        2982.50           1652          50.00       215.78
   88.25        2982.75           1655          47.00       202.70
   88.28        2983.00           1659          52.00       224.50
   88.31        2983.25           1662          46.00       198.34
   88.33        2983.50           1666          49.00       211.42
   88.37        2983.75           1669          48.00       207.06
   88.39        2984.00           1672          44.00       189.63
HS scan finished at 01:28:46
end
