************************************************************
  HS Scan of (1) Internal mercury lamp
************************************************************
Integration time is 0.2294 seconds per sample
dh260518El Arenosillo 37.1 6.73 2.86pr1000
************************************************************
Dead Time -------------------------  3.2E-08 
Number of Cycles Used -------------  4 
Starting Wavelength (Angstroms) ---  2950 
Final Wavelength (Angstoms) -------  2984 
Wavelength Increment (Angstroms) --  .25 
Filter Wheel #1 Position ---------- (1) Ground quartz diffuser (ND=2.32)
Filter Wheel #2 Position ---------- (1) Neutral Density 0.494



************************************************************
HS scan start time = 01:22:17
Dark Count =  .4 


Time (GMT)  Wavelength (Ang)  Step Number  Raw Counts  Counts/Second

   82.91        2950.00           1211          54.00       233.65
   83.13        2950.25           1215          61.00       264.17
   83.15        2950.50           1218          58.00       251.09
   83.18        2950.75           1222          55.00       238.01
   83.22        2951.00           1225          58.00       251.09
   83.24        2951.25           1228          56.00       242.37
   83.27        2951.50           1232          57.00       246.73
   83.30        2951.75           1235          60.00       259.81
   83.33        2952.00           1238          60.00       259.81
   83.36        2952.25           1242          59.00       255.45
   83.39        2952.50           1245          59.00       255.45
   83.42        2952.75           1249          53.00       229.30
   83.45        2953.00           1252          58.00       251.09
   83.48        2953.25           1255          63.00       272.89
   83.51        2953.50           1259          59.00       255.45
   83.53        2953.75           1262          58.00       251.09
   83.56        2954.00           1265          59.00       255.45
   83.60        2954.25           1269          65.00       281.61
   83.62        2954.50           1272          66.00       285.97
   83.65        2954.75           1276          56.00       242.37
   83.68        2955.00           1279          65.00       281.61
   83.71        2955.25           1282          61.00       264.17
   83.74        2955.50           1286          64.00       277.25
   83.77        2955.75           1289          60.00       259.81
   83.80        2956.00           1293          66.00       285.97
   83.82        2956.25           1296          62.00       268.53
   83.86        2956.50           1299          59.00       255.45
   83.88        2956.75           1303          58.00       251.09
   83.91        2957.00           1306          66.00       285.97
   83.94        2957.25           1309          56.00       242.37
   83.97        2957.50           1313          63.00       272.89
   84.00        2957.75           1316          67.00       290.33
   84.02        2958.00           1320          64.00       277.25
   84.06        2958.25           1323          59.00       255.45
   84.09        2958.50           1326          62.00       268.53
   84.11        2958.75           1330          69.00       299.04
   84.15        2959.00           1333          74.00       320.84
   84.17        2959.25           1336          83.00       360.07
   84.20        2959.50           1340          91.00       394.95
   84.24        2959.75           1343         112.00       486.49
   84.26        2960.00           1347         162.00       704.46
   84.29        2960.25           1350         151.00       656.51
   84.32        2960.50           1353         202.00       878.84
   84.35        2960.75           1357         279.00      1214.52
   84.38        2961.00           1360         359.00      1563.29
   84.40        2961.25           1364        1301.00      5670.60
   84.44        2961.50           1367        3712.00     16187.99
   84.47        2961.75           1370        8723.00     38069.89
   84.49        2962.00           1374       18369.00     80278.32
   84.53        2962.25           1377       25931.00    113447.70
   84.55        2962.50           1380       33342.00    146023.40
   84.58        2962.75           1384       42698.00    187245.90
   84.61        2963.00           1387       50713.00    222646.90
   84.64        2963.25           1391       61414.00    270037.50
   84.67        2963.50           1394       68618.00    302022.60
   84.70        2963.75           1397       76796.00    338412.20
   84.73        2964.00           1401       87121.00    384477.30
   84.76        2964.25           1404       94822.00    418924.60
   84.79        2964.50           1408      106511.00    471357.20
   84.82        2964.75           1411      114518.00    507376.20
   84.85        2965.00           1414      122201.00    542016.60
   84.87        2965.25           1418      133116.00    591362.80
   84.91        2965.50           1421      140819.00    626282.50
   84.94        2965.75           1424      148272.00    660144.30
   84.96        2966.00           1428      157961.00    704276.10
   85.00        2966.25           1431      164157.00    732564.20
   85.02        2966.50           1435      168459.00    752235.70
   85.05        2966.75           1438      169188.00    755571.60
   85.09        2967.00           1441      169338.00    756258.10
   85.11        2967.25           1445      169345.00    756290.10
   85.14        2967.50           1448      168552.00    752661.20
   85.17        2967.75           1452      165093.00    736842.10
   85.20        2968.00           1455      158906.00    708587.30
   85.23        2968.25           1458      152188.00    677966.00
   85.25        2968.50           1462      142474.00    633795.50
   85.29        2968.75           1465      135223.00    600906.50
   85.31        2969.00           1469      125620.00    557456.80
   85.34        2969.25           1472      118371.00    524738.60
   85.37        2969.50           1475      110821.00    490735.00
   85.40        2969.75           1479      100021.00    442223.50
   85.43        2970.00           1482       92598.00    408968.60
   85.47        2970.25           1485       84652.00    373449.40
   85.49        2970.50           1489       74282.00    327216.60
   85.52        2970.75           1492       66822.00    294042.40
   85.56        2971.00           1496       56014.00    246104.90
   85.58        2971.25           1499       48174.00    211423.90
   85.61        2971.50           1502       40889.00    179266.90
   85.64        2971.75           1506       30342.00    132828.40
   85.67        2972.00           1509       22729.00     99394.09
   85.69        2972.25           1513       13129.00     57335.26
   85.72        2972.50           1516        6831.00     29804.35
   85.76        2972.75           1519        2243.00      9779.00
   85.78        2973.00           1523         501.00      2182.37
   85.81        2973.25           1526         282.00      1227.60
   85.84        2973.50           1530         210.00       913.71
   85.87        2973.75           1533         169.00       734.98
   85.90        2974.00           1536         135.00       586.76
   85.93        2974.25           1540         140.00       608.56
   85.96        2974.50           1543          88.00       381.87
   85.98        2974.75           1547          82.00       355.71
   86.01        2975.00           1550          84.00       364.43
   86.04        2975.25           1553          67.00       290.33
   86.07        2975.50           1557          81.00       351.36
   86.10        2975.75           1560          69.00       299.04
   86.13        2976.00           1564          76.00       329.56
   86.16        2976.25           1567          72.00       312.12
   86.18        2976.50           1570          73.00       316.48
   86.22        2976.75           1574          62.00       268.53
   86.25        2977.00           1577          68.00       294.68
   86.27        2977.25           1581          74.00       320.84
   86.31        2977.50           1584          74.00       320.84
   86.33        2977.75           1587          71.00       307.76
   86.36        2978.00           1591          70.00       303.40
   86.39        2978.25           1594          74.00       320.84
   86.42        2978.50           1598          70.00       303.40
   86.45        2978.75           1601          68.00       294.68
   86.48        2979.00           1604          63.00       272.89
   86.51        2979.25           1608          71.00       307.76
   86.53        2979.50           1611          62.00       268.53
   86.56        2979.75           1614          64.00       277.25
   86.59        2980.00           1618          70.00       303.40
   86.62        2980.25           1621          71.00       307.76
   86.65        2980.50           1625          67.00       290.33
   86.68        2980.75           1628          67.00       290.33
   86.71        2981.00           1631          67.00       290.33
   86.73        2981.25           1635          61.00       264.17
   86.77        2981.50           1638          67.00       290.33
   86.80        2981.75           1642          60.00       259.81
   86.82        2982.00           1645          75.00       325.20
   86.85        2982.25           1648          67.00       290.33
   86.88        2982.50           1652          66.00       285.97
   86.91        2982.75           1655          70.00       303.40
   86.94        2983.00           1659          62.00       268.53
   86.97        2983.25           1662          63.00       272.89
   87.00        2983.50           1666          62.00       268.53
   87.02        2983.75           1669          61.00       264.17
   87.06        2984.00           1672          64.00       277.25
HS scan finished at 01:27:26
end
