************************************************************
  HS Scan of (1) Internal mercury lamp
************************************************************
Integration time is 0.2294 seconds per sample
dh260519El Arenosillo 37.1 6.73 2.88pr1000
************************************************************
Dead Time -------------------------  3.2E-08 
Number of Cycles Used -------------  4 
Starting Wavelength (Angstroms) ---  2950 
Final Wavelength (Angstoms) -------  2984 
Wavelength Increment (Angstroms) --  .25 
Filter Wheel #1 Position ---------- (1) Ground quartz diffuser (ND=2.32)
Filter Wheel #2 Position ---------- (1) Neutral Density 0.494



************************************************************
HS scan start time = 01:23:50
Dark Count =  .5 


Time (GMT)  Wavelength (Ang)  Step Number  Raw Counts  Counts/Second

   84.46        2950.00           1211          39.00       167.83
   84.68        2950.25           1215          40.00       172.19
   84.70        2950.50           1218          42.00       180.91
   84.73        2950.75           1222          37.00       159.11
   84.76        2951.00           1225          37.00       159.11
   84.79        2951.25           1228          39.00       167.83
   84.82        2951.50           1232          37.00       159.11
   84.85        2951.75           1235          41.00       176.55
   84.88        2952.00           1238          43.00       185.27
   84.91        2952.25           1242          36.00       154.75
   84.93        2952.50           1245          38.00       163.47
   84.96        2952.75           1249          35.00       150.39
   84.99        2953.00           1252          39.00       167.83
   85.01        2953.25           1255          45.00       193.99
   85.05        2953.50           1259          42.00       180.91
   85.07        2953.75           1262          41.00       176.55
   85.10        2954.00           1265          37.00       159.11
   85.13        2954.25           1269          38.00       163.47
   85.16        2954.50           1272          42.00       180.91
   85.19        2954.75           1276          47.00       202.70
   85.22        2955.00           1279          45.00       193.99
   85.25        2955.25           1282          37.00       159.11
   85.27        2955.50           1286          38.00       163.47
   85.30        2955.75           1289          42.00       180.91
   85.34        2956.00           1293          40.00       172.19
   85.36        2956.25           1296          42.00       180.91
   85.39        2956.50           1299          33.00       141.67
   85.42        2956.75           1303          37.00       159.11
   85.45        2957.00           1306          36.00       154.75
   85.48        2957.25           1309          44.00       189.63
   85.51        2957.50           1313          40.00       172.19
   85.54        2957.75           1316          40.00       172.19
   85.56        2958.00           1320          38.00       163.47
   85.60        2958.25           1323          46.00       198.34
   85.62        2958.50           1326          43.00       185.27
   85.65        2958.75           1330          46.00       198.34
   85.68        2959.00           1333          57.00       246.30
   85.71        2959.25           1336          62.00       268.09
   85.74        2959.50           1340          75.00       324.76
   85.76        2959.75           1343          91.00       394.51
   85.80        2960.00           1347         127.00       551.45
   85.82        2960.25           1350         126.00       547.09
   85.85        2960.50           1353         162.00       704.03
   85.89        2960.75           1357         192.00       834.81
   85.91        2961.00           1360         281.00      1222.80
   85.94        2961.25           1364        1114.00      4854.72
   85.97        2961.50           1367        3045.00     13277.22
   86.00        2961.75           1370        6923.00     30205.73
   86.03        2962.00           1374       14000.00     61146.12
   86.06        2962.25           1377       19665.00     85957.57
   86.09        2962.50           1380       25172.00    110114.90
   86.11        2962.75           1384       32820.00    143726.20
   86.14        2963.00           1387       38051.00    166757.20
   86.17        2963.25           1391       44743.00    196270.30
   86.20        2963.50           1394       51075.00    224247.30
   86.23        2963.75           1397       56942.00    250214.70
   86.26        2964.00           1401       64840.00    285240.00
   86.29        2964.25           1404       70914.00    312230.10
   86.32        2964.50           1408       79330.00    349704.60
   86.35        2964.75           1411       85491.00    377195.50
   86.38        2965.00           1414       91817.00    405473.50
   86.41        2965.25           1418       99643.00    440527.90
   86.44        2965.50           1421      105788.00    468108.50
   86.47        2965.75           1424      111861.00    495414.10
   86.50        2966.00           1428      118967.00    527425.50
   86.52        2966.25           1431      122613.00    543875.90
   86.56        2966.50           1435      126316.00    560601.30
   86.59        2966.75           1438      127390.00    565455.80
   86.61        2967.00           1441      127399.00    565496.50
   86.65        2967.25           1445      127302.00    565057.90
   86.67        2967.50           1448      126771.00    562657.70
   86.70        2967.75           1452      123673.00    548661.80
   86.73        2968.00           1455      119374.00    529261.00
   86.76        2968.25           1458      114478.00    507195.60
   86.79        2968.50           1462      107110.00    474048.40
   86.82        2968.75           1465      101202.00    447520.50
   86.85        2969.00           1469       94137.00    415857.00
   86.87        2969.25           1472       88311.00    389794.90
   86.90        2969.50           1475       82929.00    365757.70
   86.93        2969.75           1479       76163.00    335592.00
   86.96        2970.00           1482       70733.00    311425.10
   86.99        2970.25           1485       65186.00    286776.20
   87.02        2970.50           1489       57719.00    253657.00
   87.05        2970.75           1492       51689.00    226962.80
   87.08        2971.00           1496       43447.00    190550.30
   87.11        2971.25           1499       37556.00    164576.30
   87.14        2971.50           1502       31329.00    137167.90
   87.17        2971.75           1506       23454.00    102574.60
   87.20        2972.00           1509       17814.00     77846.25
   87.23        2972.25           1513       10347.00     45167.68
   87.25        2972.50           1516        5614.00     24489.54
   87.28        2972.75           1519        2284.00      9957.40
   87.31        2973.00           1523         450.00      1959.58
   87.34        2973.25           1526         204.00       887.12
   87.37        2973.50           1530         188.00       817.37
   87.40        2973.75           1533         130.00       564.53
   87.43        2974.00           1536          82.00       355.28
   87.45        2974.25           1540          65.00       281.17
   87.49        2974.50           1543          61.00       263.73
   87.52        2974.75           1547          55.00       237.58
   87.54        2975.00           1550          48.00       207.06
   87.57        2975.25           1553          49.00       211.42
   87.60        2975.50           1557          49.00       211.42
   87.63        2975.75           1560          54.00       233.22
   87.66        2976.00           1564          53.00       228.86
   87.69        2976.25           1567          50.00       215.78
   87.72        2976.50           1570          49.00       211.42
   87.74        2976.75           1574          52.00       224.50
   87.78        2977.00           1577          46.00       198.34
   87.80        2977.25           1581          51.00       220.14
   87.83        2977.50           1584          51.00       220.14
   87.86        2977.75           1587          53.00       228.86
   87.89        2978.00           1591          54.00       233.22
   87.92        2978.25           1594          49.00       211.42
   87.95        2978.50           1598          50.00       215.78
   87.98        2978.75           1601          43.00       185.27
   88.01        2979.00           1604          56.00       241.94
   88.03        2979.25           1608          44.00       189.63
   88.07        2979.50           1611          46.00       198.34
   88.09        2979.75           1614          49.00       211.42
   88.12        2980.00           1618          43.00       185.27
   88.15        2980.25           1621          51.00       220.14
   88.18        2980.50           1625          53.00       228.86
   88.21        2980.75           1628          46.00       198.34
   88.24        2981.00           1631          42.00       180.91
   88.27        2981.25           1635          51.00       220.14
   88.29        2981.50           1638          48.00       207.06
   88.32        2981.75           1642          47.00       202.70
   88.35        2982.00           1645          45.00       193.99
   88.38        2982.25           1648          52.00       224.50
   88.41        2982.50           1652          48.00       207.06
   88.44        2982.75           1655          49.00       211.42
   88.47        2983.00           1659          43.00       185.27
   88.49        2983.25           1662          40.00       172.19
   88.53        2983.50           1666          48.00       207.06
   88.56        2983.75           1669          46.00       198.34
   88.58        2984.00           1672          43.00       185.27
HS scan finished at 01:28:57
end
