************************************************************
  HS Scan of (1) Internal mercury lamp
************************************************************
Integration time is 0.2294 seconds per sample
dh020619El Arenosillo 37.1 6.73 2.86pr1000
************************************************************
Dead Time -------------------------  3.2E-08 
Number of Cycles Used -------------  4 
Starting Wavelength (Angstroms) ---  2950 
Final Wavelength (Angstoms) -------  2984 
Wavelength Increment (Angstroms) --  .25 
Filter Wheel #1 Position ---------- (1) Ground quartz diffuser (ND=2.32)
Filter Wheel #2 Position ---------- (1) Neutral Density 0.494



************************************************************
HS scan start time = 01:22:53
Dark Count =  .5 


Time (GMT)  Wavelength (Ang)  Step Number  Raw Counts  Counts/Second

   83.51        2950.00           1211          39.00       167.83
   83.73        2950.25           1215          42.00       180.91
   83.75        2950.50           1218          40.00       172.19
   83.78        2950.75           1222          38.00       163.47
   83.82        2951.00           1225          45.00       193.99
   83.84        2951.25           1228          38.00       163.47
   83.87        2951.50           1232          38.00       163.47
   83.89        2951.75           1235          38.00       163.47
   83.93        2952.00           1238          39.00       167.83
   83.96        2952.25           1242          38.00       163.47
   83.98        2952.50           1245          39.00       167.83
   84.01        2952.75           1249          45.00       193.99
   84.04        2953.00           1252          36.00       154.75
   84.07        2953.25           1255          42.00       180.91
   84.10        2953.50           1259          42.00       180.91
   84.13        2953.75           1262          41.00       176.55
   84.16        2954.00           1265          43.00       185.27
   84.18        2954.25           1269          38.00       163.47
   84.21        2954.50           1272          45.00       193.99
   84.24        2954.75           1276          40.00       172.19
   84.27        2955.00           1279          45.00       193.99
   84.30        2955.25           1282          45.00       193.99
   84.33        2955.50           1286          44.00       189.63
   84.36        2955.75           1289          41.00       176.55
   84.38        2956.00           1293          40.00       172.19
   84.41        2956.25           1296          40.00       172.19
   84.44        2956.50           1299          44.00       189.63
   84.47        2956.75           1303          41.00       176.55
   84.50        2957.00           1306          42.00       180.91
   84.53        2957.25           1309          35.00       150.39
   84.56        2957.50           1313          47.00       202.70
   84.58        2957.75           1316          39.00       167.83
   84.61        2958.00           1320          44.00       189.63
   84.64        2958.25           1323          42.00       180.91
   84.67        2958.50           1326          41.00       176.55
   84.70        2958.75           1330          52.00       224.50
   84.73        2959.00           1333          45.00       193.99
   84.76        2959.25           1336          62.00       268.09
   84.79        2959.50           1340          67.00       289.89
   84.81        2959.75           1343          86.00       372.72
   84.85        2960.00           1347          96.00       416.31
   84.87        2960.25           1350         121.00       525.29
   84.90        2960.50           1353         145.00       629.92
   84.93        2960.75           1357         177.00       769.42
   84.96        2961.00           1360         213.00       926.36
   84.99        2961.25           1364         436.00      1898.55
   85.01        2961.50           1367        1313.00      5722.50
   85.05        2961.75           1370        3547.00     15467.55
   85.08        2962.00           1374        9232.00     40293.86
   85.10        2962.25           1377       14468.00     63194.37
   85.14        2962.50           1380       19632.00     85812.91
   85.16        2962.75           1384       27200.00    119020.50
   85.19        2963.00           1387       33177.00    145296.90
   85.22        2963.25           1391       40033.00    175492.40
   85.25        2963.50           1394       44908.00    196998.60
   85.28        2963.75           1397       50483.00    221629.50
   85.30        2964.00           1401       57690.00    253528.50
   85.33        2964.25           1404       63272.00    278280.10
   85.37        2964.50           1408       70718.00    311358.40
   85.39        2964.75           1411       76684.00    337912.80
   85.42        2965.00           1414       82124.00    362165.60
   85.46        2965.25           1418       89963.00    397180.50
   85.48        2965.50           1421       95582.00    422327.80
   85.51        2965.75           1424      100628.00    444945.60
   85.54        2966.00           1428      107427.00    475473.00
   85.57        2966.25           1431      112157.00    496746.20
   85.60        2966.50           1435      116952.00    518341.60
   85.62        2966.75           1438      118812.00    526726.50
   85.66        2967.00           1441      119816.00    531254.60
   85.68        2967.25           1445      119769.00    531042.60
   85.71        2967.50           1448      119457.00    529635.40
   85.74        2967.75           1452      117991.00    523024.90
   85.76        2968.00           1455      114711.00    508244.90
   85.79        2968.25           1458      110305.00    488413.30
   85.81        2968.50           1462      103564.00    458120.80
   85.85        2968.75           1465       98239.00    434233.20
   85.88        2969.00           1469       90604.00    400047.20
   85.90        2969.25           1472       85826.00    378691.70
   85.93        2969.50           1475       80459.00    354738.60
   85.96        2969.75           1479       72931.00    321203.10
   85.99        2970.00           1482       67836.00    298547.00
   86.02        2970.25           1485       62255.00    273767.60
   86.05        2970.50           1489       54919.00    241256.00
   86.08        2970.75           1492       50011.00    219542.70
   86.11        2971.00           1496       42332.00    185630.80
   86.14        2971.25           1499       36693.00    160774.90
   86.17        2971.50           1502       31404.00    137497.70
   86.20        2971.75           1506       24283.00    106212.60
   86.23        2972.00           1509       18885.00     82539.00
   86.26        2972.25           1513       11503.00     50222.32
   86.29        2972.50           1516        6686.00     29170.64
   86.31        2972.75           1519        2842.00     12391.57
   86.34        2973.00           1523         532.00      2317.09
   86.37        2973.25           1526         193.00       839.17
   86.40        2973.50           1530         140.00       608.12
   86.43        2973.75           1533         162.00       704.03
   86.46        2974.00           1536          78.00       337.84
   86.49        2974.25           1540          73.00       316.05
   86.51        2974.50           1543          60.00       259.37
   86.54        2974.75           1547          53.00       228.86
   86.57        2975.00           1550          48.00       207.06
   86.60        2975.25           1553          53.00       228.86
   86.63        2975.50           1557          55.00       237.58
   86.66        2975.75           1560          44.00       189.63
   86.69        2976.00           1564          44.00       189.63
   86.71        2976.25           1567          52.00       224.50
   86.74        2976.50           1570          50.00       215.78
   86.77        2976.75           1574          46.00       198.34
   86.80        2977.00           1577          52.00       224.50
   86.83        2977.25           1581          47.00       202.70
   86.86        2977.50           1584          49.00       211.42
   86.89        2977.75           1587          48.00       207.06
   86.92        2978.00           1591          43.00       185.27
   86.94        2978.25           1594          52.00       224.50
   86.98        2978.50           1598          48.00       207.06
   87.00        2978.75           1601          45.00       193.99
   87.03        2979.00           1604          48.00       207.06
   87.06        2979.25           1608          49.00       211.42
   87.09        2979.50           1611          44.00       189.63
   87.12        2979.75           1614          43.00       185.27
   87.14        2980.00           1618          45.00       193.99
   87.18        2980.25           1621          45.00       193.99
   87.20        2980.50           1625          37.00       159.11
   87.23        2980.75           1628          50.00       215.78
   87.26        2981.00           1631          49.00       211.42
   87.28        2981.25           1635          45.00       193.99
   87.31        2981.50           1638          42.00       180.91
   87.33        2981.75           1642          45.00       193.99
   87.37        2982.00           1645          45.00       193.99
   87.40        2982.25           1648          42.00       180.91
   87.42        2982.50           1652          45.00       193.99
   87.45        2982.75           1655          42.00       180.91
   87.48        2983.00           1659          48.00       207.06
   87.51        2983.25           1662          42.00       180.91
   87.54        2983.50           1666          39.00       167.83
   87.57        2983.75           1669          44.00       189.63
   87.60        2984.00           1672          43.00       185.27
HS scan finished at 01:27:58
end
