************************************************************
  HS Scan of (1) Internal mercury lamp
************************************************************
Integration time is 0.2294 seconds per sample
dh020618El Arenosillo 37.1 6.73 2.76pr1000
************************************************************
Dead Time -------------------------  3.2E-08 
Number of Cycles Used -------------  4 
Starting Wavelength (Angstroms) ---  2950 
Final Wavelength (Angstoms) -------  2984 
Wavelength Increment (Angstroms) --  .25 
Filter Wheel #1 Position ---------- (1) Ground quartz diffuser (ND=2.32)
Filter Wheel #2 Position ---------- (1) Neutral Density 0.494



************************************************************
HS scan start time = 01:23:21
Dark Count =  .6 


Time (GMT)  Wavelength (Ang)  Step Number  Raw Counts  Counts/Second

   83.96        2950.00           1211          68.00       293.81
   84.17        2950.25           1215          59.00       254.58
   84.20        2950.50           1218          64.00       276.38
   84.23        2950.75           1222          60.00       258.94
   84.26        2951.00           1225          66.00       285.09
   84.29        2951.25           1228          64.00       276.38
   84.31        2951.50           1232          67.00       289.45
   84.35        2951.75           1235          57.00       245.86
   84.38        2952.00           1238          57.00       245.86
   84.40        2952.25           1242          62.00       267.66
   84.44        2952.50           1245          61.00       263.30
   84.46        2952.75           1249          51.00       219.71
   84.49        2953.00           1252          58.00       250.22
   84.52        2953.25           1255          58.00       250.22
   84.55        2953.50           1259          59.00       254.58
   84.58        2953.75           1262          63.00       272.02
   84.61        2954.00           1265          58.00       250.22
   84.64        2954.25           1269          57.00       245.86
   84.66        2954.50           1272          69.00       298.17
   84.69        2954.75           1276          63.00       272.02
   84.72        2955.00           1279          58.00       250.22
   84.75        2955.25           1282          58.00       250.22
   84.78        2955.50           1286          63.00       272.02
   84.81        2955.75           1289          62.00       267.66
   84.84        2956.00           1293          58.00       250.22
   84.87        2956.25           1296          60.00       258.94
   84.90        2956.50           1299          61.00       263.30
   84.93        2956.75           1303          69.00       298.17
   84.95        2957.00           1306          66.00       285.09
   84.98        2957.25           1309          61.00       263.30
   85.01        2957.50           1313          70.00       302.53
   85.04        2957.75           1316          65.00       280.73
   85.07        2958.00           1320          64.00       276.38
   85.10        2958.25           1323          59.00       254.58
   85.13        2958.50           1326          63.00       272.02
   85.16        2958.75           1330          68.00       293.81
   85.19        2959.00           1333          75.00       324.33
   85.22        2959.25           1336          81.00       350.48
   85.24        2959.50           1340          80.00       346.12
   85.28        2959.75           1343         108.00       468.18
   85.30        2960.00           1347         162.00       703.59
   85.33        2960.25           1350         159.00       690.51
   85.36        2960.50           1353         183.00       795.14
   85.39        2960.75           1357         212.00       921.56
   85.42        2961.00           1360         306.00      1331.36
   85.45        2961.25           1364         629.00      2739.56
   85.48        2961.50           1367        1786.00      7784.85
   85.51        2961.75           1370        5069.00     22109.80
   85.53        2962.00           1374       12691.00     55418.16
   85.57        2962.25           1377       20080.00     87776.28
   85.59        2962.50           1380       27973.00    122415.80
   85.62        2962.75           1384       38326.00    167968.40
   85.65        2963.00           1387       45822.00    201033.70
   85.68        2963.25           1391       55707.00    244744.50
   85.71        2963.50           1394       63633.00    279881.70
   85.74        2963.75           1397       71562.00    315111.80
   85.77        2964.00           1401       81952.00    361397.80
   85.80        2964.25           1404       90053.00    397582.50
   85.83        2964.50           1408      100221.00    443119.60
   85.86        2964.75           1411      108211.00    478996.60
   85.89        2965.00           1414      115913.00    513659.20
   85.92        2965.25           1418      126747.00    562548.80
   85.95        2965.50           1421      133534.00    593254.80
   85.98        2965.75           1424      141342.00    628655.50
   86.00        2966.00           1428      151131.00    673152.60
   86.04        2966.25           1431      158194.00    705338.10
   86.06        2966.50           1435      165426.00    738363.50
   86.09        2966.75           1438      168940.00    754435.80
   86.13        2967.00           1441      170465.00    761416.00
   86.15        2967.25           1445      170615.00    762102.80
   86.18        2967.50           1448      170361.00    760939.90
   86.21        2967.75           1452      168215.00    751118.40
   86.24        2968.00           1455      164527.00    734254.30
   86.27        2968.25           1458      158202.00    705374.60
   86.30        2968.50           1462      148582.00    661553.40
   86.33        2968.75           1465      140996.00    627085.00
   86.35        2969.00           1469      130515.00    579588.60
   86.38        2969.25           1472      123100.00    546074.10
   86.41        2969.50           1475      115107.00    510028.20
   86.44        2969.75           1479      104403.00    461887.40
   86.47        2970.00           1482       96744.00    427532.90
   86.50        2970.25           1485       89179.00    393674.60
   86.53        2970.50           1489       78991.00    348192.90
   86.56        2970.75           1492       71357.00    314200.00
   86.59        2971.00           1496       61177.00    268985.40
   86.62        2971.25           1499       53745.00    236058.90
   86.65        2971.50           1502       45836.00    201095.50
   86.68        2971.75           1506       35835.00    156996.00
   86.71        2972.00           1509       28358.00    124107.40
   86.73        2972.25           1513       18011.00     78708.90
   86.76        2972.50           1516       10234.00     44673.23
   86.79        2972.75           1519        4343.00     18940.86
   86.82        2973.00           1523         711.00      3097.08
   86.85        2973.25           1526         280.00      1218.01
   86.88        2973.50           1530         204.00       886.69
   86.91        2973.75           1533         161.00       699.23
   86.93        2974.00           1536         155.00       673.07
   86.97        2974.25           1540         123.00       533.57
   87.00        2974.50           1543          92.00       398.44
   87.02        2974.75           1547          76.00       328.69
   87.06        2975.00           1550          85.00       367.92
   87.08        2975.25           1553          77.00       333.05
   87.11        2975.50           1557          74.00       319.97
   87.14        2975.75           1560          73.00       315.61
   87.17        2976.00           1564          78.00       337.41
   87.20        2976.25           1567          70.00       302.53
   87.22        2976.50           1570          71.00       306.89
   87.26        2976.75           1574          66.00       285.09
   87.28        2977.00           1577          72.00       311.25
   87.31        2977.25           1581          75.00       324.33
   87.34        2977.50           1584          69.00       298.17
   87.37        2977.75           1587          66.00       285.09
   87.40        2978.00           1591          73.00       315.61
   87.43        2978.25           1594          75.00       324.33
   87.46        2978.50           1598          69.00       298.17
   87.48        2978.75           1601          70.00       302.53
   87.52        2979.00           1604          70.00       302.53
   87.55        2979.25           1608          70.00       302.53
   87.57        2979.50           1611          73.00       315.61
   87.60        2979.75           1614          74.00       319.97
   87.63        2980.00           1618          80.00       346.12
   87.66        2980.25           1621          70.00       302.53
   87.69        2980.50           1625          65.00       280.73
   87.72        2980.75           1628          78.00       337.41
   87.75        2981.00           1631          66.00       285.09
   87.77        2981.25           1635          67.00       289.45
   87.81        2981.50           1638          65.00       280.73
   87.83        2981.75           1642          67.00       289.45
   87.86        2982.00           1645          67.00       289.45
   87.89        2982.25           1648          64.00       276.38
   87.92        2982.50           1652          60.00       258.94
   87.95        2982.75           1655          76.00       328.69
   87.98        2983.00           1659          69.00       298.17
   88.01        2983.25           1662          67.00       289.45
   88.04        2983.50           1666          63.00       272.02
   88.07        2983.75           1669          69.00       298.17
   88.10        2984.00           1672          72.00       311.25
HS scan finished at 01:28:28
end
