************************************************************
  HS Scan of (1) Internal mercury lamp
************************************************************
Integration time is 0.2294 seconds per sample
dh080617El Arenosillo 37.1 6.73 3.01pr1000
************************************************************
Dead Time -------------------------  3.2E-08 
Number of Cycles Used -------------  4 
Starting Wavelength (Angstroms) ---  2950 
Final Wavelength (Angstoms) -------  2984 
Wavelength Increment (Angstroms) --  .25 
Filter Wheel #1 Position ---------- (1) Ground quartz diffuser (ND=2.32)
Filter Wheel #2 Position ---------- (1) Neutral Density 0.494



************************************************************
HS scan start time = 02:18:00
Dark Count =  .6 


Time (GMT)  Wavelength (Ang)  Step Number  Raw Counts  Counts/Second

  138.63        2950.00           1211         128.00       555.37
  138.84        2950.25           1215         111.00       481.26
  138.87        2950.50           1218         112.00       485.62
  138.91        2950.75           1222         119.00       516.14
  138.93        2951.00           1225         112.00       485.62
  138.96        2951.25           1228         102.00       442.03
  138.99        2951.50           1232         110.00       476.90
  139.02        2951.75           1235         119.00       516.14
  139.05        2952.00           1238         105.00       455.11
  139.08        2952.25           1242         127.00       551.01
  139.11        2952.50           1245         133.00       577.17
  139.13        2952.75           1249         158.00       686.15
  139.17        2953.00           1252         147.00       638.20
  139.19        2953.25           1255         129.00       559.73
  139.22        2953.50           1259         102.00       442.03
  139.25        2953.75           1262         135.00       585.89
  139.28        2954.00           1265         144.00       625.12
  139.31        2954.25           1269         138.00       598.97
  139.34        2954.50           1272         138.00       598.97
  139.37        2954.75           1276         122.00       529.22
  139.39        2955.00           1279         118.00       511.78
  139.43        2955.25           1282         132.00       572.81
  139.46        2955.50           1286         127.00       551.01
  139.48        2955.75           1289         120.00       520.50
  139.52        2956.00           1293         130.00       564.09
  139.54        2956.25           1296         152.00       660.00
  139.57        2956.50           1299         106.00       459.47
  139.60        2956.75           1303         136.00       590.25
  139.63        2957.00           1306         115.00       498.70
  139.66        2957.25           1309         116.00       503.06
  139.69        2957.50           1313         137.00       594.61
  139.72        2957.75           1316         116.00       503.06
  139.74        2958.00           1320         112.00       485.62
  139.78        2958.25           1323         134.00       581.53
  139.81        2958.50           1326         152.00       660.00
  139.83        2958.75           1330         143.00       620.76
  139.87        2959.00           1333         119.00       516.14
  139.89        2959.25           1336         139.00       603.32
  139.92        2959.50           1340         161.00       699.23
  139.95        2959.75           1343         188.00       816.94
  139.98        2960.00           1347         227.00       986.95
  140.01        2960.25           1350         293.00      1274.68
  140.04        2960.50           1353         322.00      1401.11
  140.07        2960.75           1357         421.00      1832.71
  140.09        2961.00           1360         551.00      2399.49
  140.13        2961.25           1364        1327.00      5783.11
  140.16        2961.50           1367        3687.00     16078.02
  140.18        2961.75           1370       10821.00     47239.63
  140.22        2962.00           1374       26659.00    116643.80
  140.24        2962.25           1377       39814.00    174526.50
  140.27        2962.50           1380       53735.00    236014.70
  140.30        2962.75           1384       71082.00    312976.80
  140.33        2963.00           1387       84160.00    371251.90
  140.36        2963.25           1391      100326.00    443590.60
  140.39        2963.50           1394      112785.00    499572.40
  140.42        2963.75           1397      125534.00    557067.30
  140.45        2964.00           1401      142604.00    634384.90
  140.48        2964.25           1404      156259.00    696513.80
  140.51        2964.50           1408      173828.00    776820.50
  140.54        2964.75           1411      186476.00    834893.50
  140.57        2965.00           1414      199417.00    894539.00
  140.60        2965.25           1418      217622.00    978839.70
  140.62        2965.50           1421      229592.00   1034521.00
  140.66        2965.75           1424      241694.00   1091023.00
  140.68        2966.00           1428      257558.00   1165405.00
  140.71        2966.25           1431      267291.00   1211219.00
  140.74        2966.50           1435      277651.00   1260136.00
  140.77        2966.75           1438      280500.00   1273616.00
  140.80        2967.00           1441      281000.00   1275983.00
  140.83        2967.25           1445      280138.00   1271903.00
  140.86        2967.50           1448      279878.00   1270672.00
  140.88        2967.75           1452      275627.00   1250567.00
  140.92        2968.00           1455      265502.00   1202788.00
  140.95        2968.25           1458      254065.00   1148996.00
  140.97        2968.50           1462      238101.00   1074226.00
  141.01        2968.75           1465      226161.00   1018540.00
  141.03        2969.00           1469      209903.00    943039.40
  141.06        2969.25           1472      198077.00    888352.10
  141.09        2969.50           1475      185500.00    830404.30
  141.12        2969.75           1479      168224.00    751159.60
  141.15        2970.00           1482      154886.00    690255.60
  141.19        2970.25           1485      142377.00    633354.10
  141.21        2970.50           1489      124915.00    554270.90
  141.24        2970.75           1492      112501.00    498294.00
  141.27        2971.00           1496       95970.00    424065.40
  141.30        2971.25           1499       83342.00    367600.50
  141.33        2971.50           1502       70790.00    311678.10
  141.36        2971.75           1506       53773.00    236182.90
  141.39        2972.00           1509       40105.00    175809.30
  141.41        2972.25           1513       23062.00    100854.20
  141.45        2972.50           1516       11863.00     51796.34
  141.47        2972.75           1519        4066.00     17731.94
  141.50        2973.00           1523         928.00      4043.24
  141.54        2973.25           1526         563.00      2451.81
  141.56        2973.50           1530         413.00      1797.84
  141.59        2973.75           1533         355.00      1544.98
  141.62        2974.00           1536         263.00      1143.90
  141.65        2974.25           1540         219.00       952.08
  141.68        2974.50           1543         171.00       742.82
  141.71        2974.75           1547         163.00       707.95
  141.74        2975.00           1550         159.00       690.51
  141.76        2975.25           1553         168.00       729.75
  141.80        2975.50           1557         137.00       594.61
  141.82        2975.75           1560         146.00       633.84
  141.85        2976.00           1564         162.00       703.59
  141.88        2976.25           1567         163.00       707.95
  141.91        2976.50           1570         133.00       577.17
  141.94        2976.75           1574         135.00       585.89
  141.97        2977.00           1577         146.00       633.84
  142.00        2977.25           1581         144.00       625.12
  142.03        2977.50           1584         135.00       585.89
  142.06        2977.75           1587         130.00       564.09
  142.09        2978.00           1591         140.00       607.68
  142.11        2978.25           1594         140.00       607.68
  142.15        2978.50           1598         153.00       664.36
  142.17        2978.75           1601         143.00       620.76
  142.20        2979.00           1604         145.00       629.48
  142.23        2979.25           1608         150.00       651.28
  142.26        2979.50           1611         133.00       577.17
  142.29        2979.75           1614         143.00       620.76
  142.32        2980.00           1618         144.00       625.12
  142.35        2980.25           1621         172.00       747.18
  142.37        2980.50           1625         130.00       564.09
  142.41        2980.75           1628         131.00       568.45
  142.44        2981.00           1631         134.00       581.53
  142.46        2981.25           1635         132.00       572.81
  142.50        2981.50           1638         136.00       590.25
  142.52        2981.75           1642         151.00       655.64
  142.55        2982.00           1645         163.00       707.95
  142.58        2982.25           1648         148.00       642.56
  142.61        2982.50           1652         143.00       620.76
  142.64        2982.75           1655         129.00       559.73
  142.67        2983.00           1659         135.00       585.89
  142.70        2983.25           1662         130.00       564.09
  142.72        2983.50           1666         123.00       533.57
  142.76        2983.75           1669         134.00       581.53
  142.79        2984.00           1672         132.00       572.81
HS scan finished at 02:23:09
end
************************************************************
  HS Scan of (1) Internal mercury lamp
************************************************************
Integration time is 0.2294 seconds per sample
dh080617El Arenosillo 37.1 6.73 3.27pr1000
************************************************************
Dead Time -------------------------  3.2E-08 
Number of Cycles Used -------------  4 
Starting Wavelength (Angstroms) ---  2950 
Final Wavelength (Angstoms) -------  2984 
Wavelength Increment (Angstroms) --  .25 
Filter Wheel #1 Position ---------- (1) Ground quartz diffuser (ND=2.32)
Filter Wheel #2 Position ---------- (1) Neutral Density 0.494



************************************************************
HS scan start time = 20:43:11
Dark Count =  1.4 


Time (GMT)  Wavelength (Ang)  Step Number  Raw Counts  Counts/Second

 1243.82        2950.00           1211          98.00       421.10
 1244.03        2950.25           1215         101.00       434.18
 1244.05        2950.50           1218         105.00       451.62
 1244.09        2950.75           1222         122.00       525.73
 1244.11        2951.00           1225         115.00       495.21
 1244.14        2951.25           1228         119.00       512.65
 1244.17        2951.50           1232         119.00       512.65
 1244.20        2951.75           1235          95.00       408.03
 1244.23        2952.00           1238         106.00       455.98
 1244.26        2952.25           1242          99.00       425.46
 1244.29        2952.50           1245         110.00       473.42
 1244.32        2952.75           1249         103.00       442.90
 1244.35        2953.00           1252         104.00       447.26
 1244.38        2953.25           1255         136.00       586.76
 1244.40        2953.50           1259         104.00       447.26
 1244.44        2953.75           1262         123.00       530.09
 1244.47        2954.00           1265         103.00       442.90
 1244.49        2954.25           1269         100.00       429.82
 1244.53        2954.50           1272         125.00       538.81
 1244.55        2954.75           1276         102.00       438.54
 1244.58        2955.00           1279          99.00       425.46
 1244.61        2955.25           1282         107.00       460.34
 1244.64        2955.50           1286         112.00       482.13
 1244.67        2955.75           1289          98.00       421.10
 1244.70        2956.00           1293         101.00       434.18
 1244.73        2956.25           1296          99.00       425.46
 1244.75        2956.50           1299         117.00       503.93
 1244.79        2956.75           1303          98.00       421.10
 1244.81        2957.00           1306         105.00       451.62
 1244.84        2957.25           1309         100.00       429.82
 1244.88        2957.50           1313         120.00       517.01
 1244.90        2957.75           1316         105.00       451.62
 1244.93        2958.00           1320         119.00       512.65
 1244.96        2958.25           1323         105.00       451.62
 1244.99        2958.50           1326         161.00       695.74
 1245.02        2958.75           1330          94.00       403.67
 1245.05        2959.00           1333         120.00       517.01
 1245.08        2959.25           1336         160.00       691.38
 1245.10        2959.50           1340         168.00       726.26
 1245.14        2959.75           1343         165.00       713.18
 1245.16        2960.00           1347         206.00       891.92
 1245.19        2960.25           1350         269.00      1166.57
 1245.23        2960.50           1353         300.00      1301.71
 1245.25        2960.75           1357         361.00      1567.65
 1245.28        2961.00           1360         501.00      2178.01
 1245.31        2961.25           1364        1080.00      4702.54
 1245.34        2961.50           1367        2770.00     12073.54
 1245.37        2961.75           1370        8309.00     36256.51
 1245.40        2962.00           1374       23089.00    100969.10
 1245.43        2962.25           1377       35490.00    155473.40
 1245.45        2962.50           1380       48673.00    213624.50
 1245.49        2962.75           1384       67246.00    295921.50
 1245.51        2963.00           1387       79578.00    350806.20
 1245.54        2963.25           1391       96007.00    424227.60
 1245.57        2963.50           1394      109351.00    484118.70
 1245.60        2963.75           1397      121514.00    538911.40
 1245.63        2964.00           1401      138396.00    615285.40
 1245.66        2964.25           1404      150652.00    670968.50
 1245.69        2964.50           1408      167927.00    749797.10
 1245.72        2964.75           1411      181059.00    809990.90
 1245.75        2965.00           1414      194721.00    872864.50
 1245.78        2965.25           1418      212508.00    955108.10
 1245.81        2965.50           1421      225303.00   1014543.00
 1245.84        2965.75           1424      238200.00   1074685.00
 1245.87        2966.00           1428      255141.00   1154045.00
 1245.90        2966.25           1431      267476.00   1212088.00
 1245.93        2966.50           1435      277826.00   1260960.00
 1245.96        2966.75           1438      281336.00   1277570.00
 1245.98        2967.00           1441      282041.00   1280908.00
 1246.02        2967.25           1445      281966.00   1280553.00
 1246.04        2967.50           1448      281575.00   1278701.00
 1246.07        2967.75           1452      277033.00   1257210.00
 1246.11        2968.00           1455      270457.00   1226148.00
 1246.13        2968.25           1458      259344.00   1173798.00
 1246.16        2968.50           1462      243668.00   1100255.00
 1246.19        2968.75           1465      231766.00   1044652.00
 1246.22        2969.00           1469      213583.00    960092.90
 1246.25        2969.25           1472      200824.00    901034.10
 1246.28        2969.50           1475      188927.00    846168.70
 1246.31        2969.75           1479      172542.00    770924.30
 1246.34        2970.00           1482      160588.00    716259.00
 1246.37        2970.25           1485      149562.00    666008.20
 1246.40        2970.50           1489      133450.00    592870.80
 1246.42        2970.75           1492      121515.00    538916.00
 1246.46        2971.00           1496      105361.00    466186.30
 1246.49        2971.25           1499       92536.00    408686.60
 1246.51        2971.50           1502       78689.00    346843.20
 1246.55        2971.75           1506       60455.00    265780.10
 1246.58        2972.00           1509       47010.00    206276.90
 1246.60        2972.25           1513       29814.00    130502.90
 1246.64        2972.50           1516       17068.00     74574.44
 1246.66        2972.75           1519        7292.00     31813.54
 1246.69        2973.00           1523        1533.00      6677.97
 1246.72        2973.25           1526         715.00      3111.03
 1246.75        2973.50           1530         500.00      2173.65
 1246.78        2973.75           1533         392.00      1702.80
 1246.81        2974.00           1536         305.00      1323.51
 1246.84        2974.25           1540         265.00      1149.13
 1246.86        2974.50           1543         198.00       857.04
 1246.90        2974.75           1547         165.00       713.18
 1246.93        2975.00           1550         156.00       673.95
 1246.95        2975.25           1553         139.00       599.84
 1246.99        2975.50           1557         154.00       665.23
 1247.01        2975.75           1560         121.00       521.37
 1247.04        2976.00           1564         130.00       560.60
 1247.07        2976.25           1567         157.00       678.31
 1247.10        2976.50           1570         165.00       713.18
 1247.13        2976.75           1574         177.00       765.49
 1247.16        2977.00           1577         131.00       564.96
 1247.19        2977.25           1581         159.00       687.02
 1247.21        2977.50           1584         128.00       551.88
 1247.25        2977.75           1587         144.00       621.63
 1247.27        2978.00           1591         126.00       543.17
 1247.30        2978.25           1594         115.00       495.21
 1247.34        2978.50           1598         115.00       495.21
 1247.36        2978.75           1601         139.00       599.84
 1247.39        2979.00           1604         130.00       560.60
 1247.42        2979.25           1608         136.00       586.76
 1247.45        2979.50           1611         160.00       691.38
 1247.48        2979.75           1614         144.00       621.63
 1247.51        2980.00           1618         134.00       578.04
 1247.54        2980.25           1621         144.00       621.63
 1247.56        2980.50           1625         140.00       604.20
 1247.60        2980.75           1628         159.00       687.02
 1247.62        2981.00           1631         162.00       700.10
 1247.65        2981.25           1635         138.00       595.48
 1247.68        2981.50           1638         139.00       599.84
 1247.71        2981.75           1642         137.00       591.12
 1247.74        2982.00           1645         134.00       578.04
 1247.77        2982.25           1648         130.00       560.60
 1247.80        2982.50           1652         123.00       530.09
 1247.82        2982.75           1655         123.00       530.09
 1247.86        2983.00           1659         138.00       595.48
 1247.89        2983.25           1662         137.00       591.12
 1247.91        2983.50           1666         126.00       543.17
 1247.95        2983.75           1669         109.00       469.06
 1247.97        2984.00           1672         118.00       508.29
HS scan finished at 20:48:21
end
