************************************************************
  HS Scan of (1) Internal mercury lamp
************************************************************
Integration time is 0.2294 seconds per sample
dh060617El Arenosillo 37.1 6.73 3.21pr1000
************************************************************
Dead Time -------------------------  3.2E-08 
Number of Cycles Used -------------  4 
Starting Wavelength (Angstroms) ---  2950 
Final Wavelength (Angstoms) -------  2984 
Wavelength Increment (Angstroms) --  .25 
Filter Wheel #1 Position ---------- (1) Ground quartz diffuser (ND=2.32)
Filter Wheel #2 Position ---------- (1) Neutral Density 0.494



************************************************************
HS scan start time = 20:43:18
Dark Count =  1 


Time (GMT)  Wavelength (Ang)  Step Number  Raw Counts  Counts/Second

 1243.93        2950.00           1211         100.00       431.57
 1244.14        2950.25           1215         109.00       470.80
 1244.17        2950.50           1218         102.00       440.29
 1244.19        2950.75           1222         138.00       597.22
 1244.22        2951.00           1225         108.00       466.44
 1244.24        2951.25           1228         109.00       470.80
 1244.27        2951.50           1232         100.00       431.57
 1244.30        2951.75           1235         100.00       431.57
 1244.32        2952.00           1238         108.00       466.44
 1244.35        2952.25           1242          98.00       422.85
 1244.38        2952.50           1245         102.00       440.29
 1244.41        2952.75           1249         123.00       531.83
 1244.43        2953.00           1252         105.00       453.36
 1244.46        2953.25           1255         103.00       444.64
 1244.49        2953.50           1259         129.00       557.99
 1244.51        2953.75           1262         103.00       444.64
 1244.55        2954.00           1265         120.00       518.75
 1244.57        2954.25           1269         117.00       505.68
 1244.60        2954.50           1272         109.00       470.80
 1244.62        2954.75           1276         102.00       440.29
 1244.65        2955.00           1279         108.00       466.44
 1244.68        2955.25           1282         132.00       571.07
 1244.71        2955.50           1286         120.00       518.75
 1244.74        2955.75           1289         126.00       544.91
 1244.76        2956.00           1293         117.00       505.68
 1244.79        2956.25           1296         127.00       549.27
 1244.81        2956.50           1299         107.00       462.08
 1244.84        2956.75           1303         153.00       662.61
 1244.87        2957.00           1306         105.00       453.36
 1244.90        2957.25           1309         105.00       453.36
 1244.93        2957.50           1313         102.00       440.29
 1244.95        2957.75           1316         107.00       462.08
 1244.98        2958.00           1320         110.00       475.16
 1245.00        2958.25           1323         117.00       505.68
 1245.04        2958.50           1326         118.00       510.03
 1245.06        2958.75           1330         109.00       470.80
 1245.09        2959.00           1333         120.00       518.75
 1245.12        2959.25           1336         151.00       653.89
 1245.14        2959.50           1340         166.00       719.28
 1245.17        2959.75           1343         184.00       797.75
 1245.20        2960.00           1347         245.00      1063.68
 1245.23        2960.25           1350         268.00      1163.95
 1245.25        2960.50           1353         341.00      1482.20
 1245.28        2960.75           1357         429.00      1865.85
 1245.31        2961.00           1360         569.00      2476.22
 1245.33        2961.25           1364        1551.00      6758.22
 1245.36        2961.50           1367        4082.00     17800.02
 1245.39        2961.75           1370       10968.00     47880.64
 1245.42        2962.00           1374       27259.00    119277.40
 1245.44        2962.25           1377       40646.00    178192.80
 1245.47        2962.50           1380       53927.00    236862.70
 1245.50        2962.75           1384       71598.00    315270.20
 1245.52        2963.00           1387       86138.00    380083.10
 1245.56        2963.25           1391      103551.00    458060.20
 1245.58        2963.50           1394      116365.00    515694.00
 1245.61        2963.75           1397      129152.00    573420.80
 1245.64        2964.00           1401      146725.00    653107.00
 1245.66        2964.25           1404      160160.00    714307.10
 1245.69        2964.50           1408      177567.00    793963.30
 1245.72        2964.75           1411      190618.00    853957.10
 1245.75        2965.00           1414      204012.00    915771.40
 1245.78        2965.25           1418      222498.00   1001495.00
 1245.80        2965.50           1421      236255.00   1065602.00
 1245.83        2965.75           1424      249041.00   1125424.00
 1245.85        2966.00           1428      266046.00   1205350.00
 1245.89        2966.25           1431      278845.00   1265782.00
 1245.91        2966.50           1435      288919.00   1313517.00
 1245.94        2966.75           1438      290710.00   1322019.00
 1245.97        2967.00           1441      292184.00   1329020.00
 1245.99        2967.25           1445      291096.00   1323852.00
 1246.02        2967.50           1448      290889.00   1322869.00
 1246.04        2967.75           1452      286319.00   1301183.00
 1246.07        2968.00           1455      277880.00   1261218.00
 1246.10        2968.25           1458      266916.00   1209450.00
 1246.12        2968.50           1462      250727.00   1133330.00
 1246.15        2968.75           1465      238442.00   1075818.00
 1246.18        2969.00           1469      220472.00    992077.00
 1246.20        2969.25           1472      208877.00    938285.20
 1246.24        2969.50           1475      195293.00    875504.30
 1246.26        2969.75           1479      177306.00    792766.00
 1246.29        2970.00           1482      164740.00    735225.90
 1246.32        2970.25           1485      152797.00    680736.60
 1246.34        2970.50           1489      134408.00    597211.50
 1246.37        2970.75           1492      122504.00    543381.60
 1246.40        2971.00           1496      106332.00    470550.20
 1246.43        2971.25           1499       92326.00    407748.70
 1246.46        2971.50           1502       79267.00    349421.50
 1246.48        2971.75           1506       60786.00    267249.60
 1246.51        2972.00           1509       46660.00    204732.70
 1246.54        2972.25           1513       28439.00    124461.60
 1246.57        2972.50           1516       15596.00     68130.06
 1246.59        2972.75           1519        6103.00     26622.50
 1246.62        2973.00           1523        1272.00      5541.52
 1246.65        2973.25           1526         606.00      2637.54
 1246.67        2973.50           1530         426.00      1852.77
 1246.70        2973.75           1533         354.00      1538.87
 1246.73        2974.00           1536         285.00      1238.06
 1246.76        2974.25           1540         217.00       941.62
 1246.78        2974.50           1543         170.00       736.72
 1246.81        2974.75           1547         161.00       697.49
 1246.84        2975.00           1550         144.00       623.38
 1246.86        2975.25           1553         141.00       610.30
 1246.89        2975.50           1557         137.00       592.86
 1246.92        2975.75           1560         134.00       579.78
 1246.95        2976.00           1564         130.00       562.35
 1246.97        2976.25           1567         149.00       645.17
 1247.00        2976.50           1570         131.00       566.71
 1247.03        2976.75           1574         149.00       645.17
 1247.05        2977.00           1577         152.00       658.25
 1247.08        2977.25           1581         145.00       627.74
 1247.11        2977.50           1584         144.00       623.38
 1247.14        2977.75           1587         125.00       540.55
 1247.16        2978.00           1591         144.00       623.38
 1247.19        2978.25           1594         123.00       531.83
 1247.22        2978.50           1598         140.00       605.94
 1247.25        2978.75           1601         131.00       566.71
 1247.28        2979.00           1604         121.00       523.11
 1247.30        2979.25           1608         127.00       549.27
 1247.33        2979.50           1611         124.00       536.19
 1247.35        2979.75           1614         141.00       610.30
 1247.38        2980.00           1618         138.00       597.22
 1247.41        2980.25           1621         170.00       736.72
 1247.44        2980.50           1625         140.00       605.94
 1247.47        2980.75           1628         143.00       619.02
 1247.49        2981.00           1631         134.00       579.78
 1247.52        2981.25           1635         156.00       675.69
 1247.54        2981.50           1638         150.00       649.53
 1247.58        2981.75           1642         145.00       627.74
 1247.60        2982.00           1645         173.00       749.80
 1247.63        2982.25           1648         156.00       675.69
 1247.66        2982.50           1652         142.00       614.66
 1247.68        2982.75           1655         142.00       614.66
 1247.71        2983.00           1659         126.00       544.91
 1247.74        2983.25           1662         122.00       527.47
 1247.77        2983.50           1666         114.00       492.60
 1247.79        2983.75           1669         118.00       510.03
 1247.82        2984.00           1672         130.00       562.35
HS scan finished at 20:48:11
end
