************************************************************
  HS Scan of (1) Internal mercury lamp
************************************************************
Integration time is 0.2294 seconds per sample
dh070617El Arenosillo 37.1 6.73 3.07pr1000
************************************************************
Dead Time -------------------------  3.2E-08 
Number of Cycles Used -------------  4 
Starting Wavelength (Angstroms) ---  2950 
Final Wavelength (Angstoms) -------  2984 
Wavelength Increment (Angstroms) --  .25 
Filter Wheel #1 Position ---------- (1) Ground quartz diffuser (ND=2.32)
Filter Wheel #2 Position ---------- (1) Neutral Density 0.494



************************************************************
HS scan start time = 02:41:39
Dark Count =  .7 


Time (GMT)  Wavelength (Ang)  Step Number  Raw Counts  Counts/Second

  162.27        2950.00           1211         119.00       515.70
  162.49        2950.25           1215         107.00       463.39
  162.52        2950.50           1218         124.00       537.50
  162.54        2950.75           1222         106.00       459.03
  162.57        2951.00           1225         109.00       472.11
  162.60        2951.25           1228         105.00       454.67
  162.63        2951.50           1232         104.00       450.31
  162.66        2951.75           1235         130.00       563.65
  162.68        2952.00           1238         129.00       559.30
  162.72        2952.25           1242         163.00       707.51
  162.74        2952.50           1245         141.00       611.61
  162.77        2952.75           1249         103.00       445.95
  162.80        2953.00           1252         126.00       546.22
  162.83        2953.25           1255         113.00       489.55
  162.86        2953.50           1259         110.00       476.47
  162.89        2953.75           1262         108.00       467.75
  162.91        2954.00           1265         108.00       467.75
  162.95        2954.25           1269         110.00       476.47
  162.97        2954.50           1272         121.00       524.42
  163.00        2954.75           1276         107.00       463.39
  163.03        2955.00           1279         128.00       554.94
  163.06        2955.25           1282         130.00       563.65
  163.09        2955.50           1286         132.00       572.37
  163.11        2955.75           1289         101.00       437.23
  163.14        2956.00           1293         112.00       485.19
  163.18        2956.25           1296         142.00       615.97
  163.20        2956.50           1299         110.00       476.47
  163.23        2956.75           1303         112.00       485.19
  163.26        2957.00           1306         110.00       476.47
  163.29        2957.25           1309         107.00       463.39
  163.32        2957.50           1313         110.00       476.47
  163.34        2957.75           1316         119.00       515.70
  163.37        2958.00           1320         120.00       520.06
  163.40        2958.25           1323         128.00       554.94
  163.43        2958.50           1326         110.00       476.47
  163.46        2958.75           1330         129.00       559.30
  163.48        2959.00           1333         146.00       633.40
  163.52        2959.25           1336         147.00       637.76
  163.54        2959.50           1340         157.00       681.36
  163.57        2959.75           1343         182.00       790.34
  163.60        2960.00           1347         215.00       934.20
  163.63        2960.25           1350         280.00      1217.57
  163.66        2960.50           1353         314.00      1365.80
  163.68        2960.75           1357         415.00      1806.12
  163.71        2961.00           1360         542.00      2359.81
  163.74        2961.25           1364        1398.00      6092.30
  163.77        2961.50           1367        3865.00     16854.34
  163.80        2961.75           1370       10460.00     45660.83
  163.82        2962.00           1374       27114.00    118641.80
  163.86        2962.25           1377       40711.00    178480.70
  163.88        2962.50           1380       53238.00    233814.90
  163.91        2962.75           1384       71243.00    313692.40
  163.94        2963.00           1387       85209.00    375935.20
  163.97        2963.25           1391      102177.00    451894.40
  164.00        2963.50           1394      115006.00    509572.80
  164.02        2963.75           1397      128668.00    571233.20
  164.05        2964.00           1401      146851.00    653681.00
  164.08        2964.25           1404      158659.00    707459.00
  164.11        2964.50           1408      176654.00    789776.50
  164.14        2964.75           1411      189624.00    849380.90
  164.16        2965.00           1414      203388.00    912887.40
  164.20        2965.25           1418      221971.00    999046.30
  164.23        2965.50           1421      235773.00   1063352.00
  164.25        2965.75           1424      248457.00   1122688.00
  164.28        2966.00           1428      265508.00   1202816.00
  164.31        2966.25           1431      275869.00   1251711.00
  164.34        2966.50           1435      287753.00   1307986.00
  164.37        2966.75           1438      288846.00   1313172.00
  164.39        2967.00           1441      289746.00   1317444.00
  164.43        2967.25           1445      289600.00   1316751.00
  164.45        2967.50           1448      288642.00   1312204.00
  164.48        2967.75           1452      284003.00   1290206.00
  164.51        2968.00           1455      275568.00   1250288.00
  164.54        2968.25           1458      264293.00   1197092.00
  164.57        2968.50           1462      247330.00   1117407.00
  164.59        2968.75           1465      234298.00   1056467.00
  164.62        2969.00           1469      217735.00    979363.90
  164.65        2969.25           1472      203916.00    915328.90
  164.68        2969.50           1475      190851.00    855031.70
  164.71        2969.75           1479      173908.00    777186.60
  164.73        2970.00           1482      161539.00    720604.00
  164.77        2970.25           1485      148942.00    663190.60
  164.80        2970.50           1489      132886.00    590320.00
  164.82        2970.75           1492      120836.00    535855.20
  164.85        2971.00           1496      102862.00    454968.70
  164.88        2971.25           1499       88815.00    392046.80
  164.91        2971.50           1502       75502.00    332647.30
  164.94        2971.75           1506       56886.00    249965.80
  164.96        2972.00           1509       42535.00    186525.50
  165.00        2972.25           1513       24841.00    108661.00
  165.02        2972.50           1516       13318.00     58160.89
  165.05        2972.75           1519        4737.00     20660.12
  165.07        2973.00           1523        1065.00      4640.18
  165.11        2973.25           1526         617.00      2686.80
  165.14        2973.50           1530         456.00      1984.87
  165.16        2973.75           1533         368.00      1601.22
  165.19        2974.00           1536         294.00      1278.61
  165.22        2974.25           1540         232.00      1008.32
  165.25        2974.50           1543         198.00       860.09
  165.28        2974.75           1547         169.00       733.67
  165.30        2975.00           1550         165.00       716.23
  165.34        2975.25           1553         140.00       607.25
  165.36        2975.50           1557         146.00       633.40
  165.39        2975.75           1560         151.00       655.20
  165.42        2976.00           1564         131.00       568.01
  165.45        2976.25           1567         137.00       594.17
  165.48        2976.50           1570         149.00       646.48
  165.50        2976.75           1574         148.00       642.12
  165.53        2977.00           1577         137.00       594.17
  165.56        2977.25           1581         159.00       690.08
  165.59        2977.50           1584         137.00       594.17
  165.62        2977.75           1587         129.00       559.30
  165.64        2978.00           1591         142.00       615.97
  165.68        2978.25           1594         166.00       720.59
  165.70        2978.50           1598         143.00       620.33
  165.73        2978.75           1601         139.00       602.89
  165.76        2979.00           1604         136.00       589.81
  165.79        2979.25           1608         135.00       585.45
  165.82        2979.50           1611         133.00       576.73
  165.84        2979.75           1614         136.00       589.81
  165.87        2980.00           1618         146.00       633.40
  165.90        2980.25           1621         126.00       546.22
  165.93        2980.50           1625         135.00       585.45
  165.96        2980.75           1628         141.00       611.61
  165.98        2981.00           1631         157.00       681.36
  166.02        2981.25           1635         160.00       694.44
  166.05        2981.50           1638         122.00       528.78
  166.07        2981.75           1642         144.00       624.69
  166.10        2982.00           1645         144.00       624.69
  166.13        2982.25           1648         156.00       677.00
  166.16        2982.50           1652         148.00       642.12
  166.18        2982.75           1655         122.00       528.78
  166.21        2983.00           1659         130.00       563.65
  166.25        2983.25           1662         147.00       637.76
  166.27        2983.50           1666         117.00       506.98
  166.30        2983.75           1669         121.00       524.42
  166.32        2984.00           1672         156.00       677.00
HS scan finished at 02:46:42
end
************************************************************
  HS Scan of (1) Internal mercury lamp
************************************************************
Integration time is 0.2294 seconds per sample
dh070617El Arenosillo 37.1 6.73 3.41pr1000
************************************************************
Dead Time -------------------------  3.2E-08 
Number of Cycles Used -------------  4 
Starting Wavelength (Angstroms) ---  2950 
Final Wavelength (Angstoms) -------  2984 
Wavelength Increment (Angstroms) --  .25 
Filter Wheel #1 Position ---------- (1) Ground quartz diffuser (ND=2.32)
Filter Wheel #2 Position ---------- (1) Neutral Density 0.494



************************************************************
HS scan start time = 20:43:10
Dark Count =  2.4 


Time (GMT)  Wavelength (Ang)  Step Number  Raw Counts  Counts/Second

 1243.79        2950.00           1211         110.00       469.06
 1244.00        2950.25           1215          97.00       412.39
 1244.03        2950.50           1218         104.00       442.90
 1244.06        2950.75           1222         135.00       578.04
 1244.09        2951.00           1225          96.00       408.03
 1244.12        2951.25           1228          91.00       386.23
 1244.14        2951.50           1232         101.00       429.82
 1244.18        2951.75           1235          96.00       408.03
 1244.20        2952.00           1238          93.00       394.95
 1244.23        2952.25           1242         121.00       517.01
 1244.26        2952.50           1245         105.00       447.26
 1244.29        2952.75           1249         115.00       490.85
 1244.32        2953.00           1252         103.00       438.54
 1244.35        2953.25           1255         100.00       425.46
 1244.38        2953.50           1259         137.00       586.76
 1244.41        2953.75           1262         100.00       425.46
 1244.44        2954.00           1265          99.00       421.10
 1244.47        2954.25           1269         100.00       425.46
 1244.49        2954.50           1272         113.00       482.13
 1244.53        2954.75           1276         105.00       447.26
 1244.55        2955.00           1279          97.00       412.39
 1244.58        2955.25           1282          94.00       399.31
 1244.61        2955.50           1286          98.00       416.74
 1244.64        2955.75           1289         100.00       425.46
 1244.67        2956.00           1293         118.00       503.93
 1244.70        2956.25           1296         101.00       429.82
 1244.73        2956.50           1299         101.00       429.82
 1244.76        2956.75           1303         115.00       490.85
 1244.78        2957.00           1306         126.00       538.81
 1244.81        2957.25           1309          91.00       386.23
 1244.83        2957.50           1313          93.00       394.95
 1244.86        2957.75           1316         103.00       438.54
 1244.90        2958.00           1320         107.00       455.98
 1244.92        2958.25           1323         106.00       451.62
 1244.95        2958.50           1326         125.00       534.45
 1244.98        2958.75           1330         109.00       464.70
 1245.01        2959.00           1333         152.00       652.15
 1245.04        2959.25           1336         134.00       573.68
 1245.07        2959.50           1340         149.00       639.07
 1245.10        2959.75           1343         187.00       804.73
 1245.12        2960.00           1347         236.00      1018.34
 1245.16        2960.25           1350         256.00      1105.53
 1245.18        2960.50           1353         317.00      1371.46
 1245.21        2960.75           1357         417.00      1807.43
 1245.24        2961.00           1360         544.00      2361.12
 1245.27        2961.25           1364        1043.00      4536.84
 1245.30        2961.50           1367        2712.00     11816.15
 1245.33        2961.75           1370        7922.00     34561.31
 1245.36        2962.00           1374       22529.00     98507.94
 1245.39        2962.25           1377       36332.00    159176.70
 1245.42        2962.50           1380       49344.00    216585.70
 1245.45        2962.75           1384       67478.00    296947.80
 1245.47        2963.00           1387       80662.00    355635.50
 1245.51        2963.25           1391       97571.00    431230.70
 1245.54        2963.50           1394      110793.00    490600.10
 1245.56        2963.75           1397      123251.00    546747.80
 1245.59        2964.00           1401      140261.00    623741.30
 1245.62        2964.25           1404      152924.00    681308.60
 1245.65        2964.50           1408      171368.00    765542.50
 1245.68        2964.75           1411      184390.00    825292.20
 1245.71        2965.00           1414      197902.00    887536.00
 1245.74        2965.25           1418      216840.00    975200.60
 1245.77        2965.50           1421      230694.00   1039649.00
 1245.80        2965.75           1424      243742.00   1100597.00
 1245.82        2966.00           1428      261286.00   1182928.00
 1245.85        2966.25           1431      273230.00   1239234.00
 1245.88        2966.50           1435      284607.00   1293060.00
 1245.91        2966.75           1438      287137.00   1305056.00
 1245.93        2967.00           1441      288223.00   1310208.00
 1245.97        2967.25           1445      288718.00   1312557.00
 1246.00        2967.50           1448      288324.00   1310687.00
 1246.02        2967.75           1452      284679.00   1293401.00
 1246.06        2968.00           1455      276958.00   1256851.00
 1246.08        2968.25           1458      265287.00   1201767.00
 1246.11        2968.50           1462      250139.00   1130566.00
 1246.14        2968.75           1465      236989.00   1069023.00
 1246.17        2969.00           1469      219839.00    989129.00
 1246.20        2969.25           1472      207432.00    931588.20
 1246.23        2969.50           1475      194334.00    871075.30
 1246.26        2969.75           1479      177828.00    795154.40
 1246.29        2970.00           1482      165940.00    740705.00
 1246.32        2970.25           1485      152898.00    681190.10
 1246.35        2970.50           1489      137996.00    613466.90
 1246.38        2970.75           1492      125897.00    558699.40
 1246.41        2971.00           1496      108971.00    482405.40
 1246.44        2971.25           1499       95707.00    422879.20
 1246.47        2971.50           1502       81806.00    360738.40
 1246.50        2971.75           1506       62701.00    275737.90
 1246.53        2972.00           1509       48948.00    214835.50
 1246.55        2972.25           1513       31117.00    136227.30
 1246.59        2972.50           1516       18270.00     79835.78
 1246.61        2972.75           1519        8054.00     35138.01
 1246.64        2973.00           1523        1692.00      7367.04
 1246.68        2973.25           1526         719.00      3124.11
 1246.70        2973.50           1530         475.00      2060.29
 1246.73        2973.75           1533         402.00      1742.03
 1246.76        2974.00           1536         305.00      1319.15
 1246.79        2974.25           1540         217.00       935.51
 1246.82        2974.50           1543         181.00       778.57
 1246.85        2974.75           1547         172.00       739.34
 1246.88        2975.00           1550         148.00       634.71
 1246.90        2975.25           1553         157.00       673.95
 1246.93        2975.50           1557         141.00       604.20
 1246.96        2975.75           1560         131.00       560.60
 1246.99        2976.00           1564         114.00       486.49
 1247.02        2976.25           1567         141.00       604.20
 1247.05        2976.50           1570         121.00       517.01
 1247.08        2976.75           1574         135.00       578.04
 1247.10        2977.00           1577         137.00       586.76
 1247.14        2977.25           1581         146.00       625.99
 1247.16        2977.50           1584         132.00       564.96
 1247.19        2977.75           1587         138.00       591.12
 1247.23        2978.00           1591         146.00       625.99
 1247.25        2978.25           1594         128.00       547.52
 1247.28        2978.50           1598         132.00       564.96
 1247.31        2978.75           1601         137.00       586.76
 1247.34        2979.00           1604         136.00       582.40
 1247.37        2979.25           1608         128.00       547.52
 1247.40        2979.50           1611         133.00       569.32
 1247.43        2979.75           1614         115.00       490.85
 1247.45        2980.00           1618         127.00       543.17
 1247.49        2980.25           1621         136.00       582.40
 1247.51        2980.50           1625         150.00       643.43
 1247.54        2980.75           1628         118.00       503.93
 1247.57        2981.00           1631         126.00       538.81
 1247.60        2981.25           1635         150.00       643.43
 1247.63        2981.50           1638         130.00       556.24
 1247.66        2981.75           1642         131.00       560.60
 1247.69        2982.00           1645         112.00       477.78
 1247.72        2982.25           1648         135.00       578.04
 1247.74        2982.50           1652         118.00       503.93
 1247.78        2982.75           1655         141.00       604.20
 1247.80        2983.00           1659         116.00       495.21
 1247.83        2983.25           1662         129.00       551.88
 1247.86        2983.50           1666         106.00       451.62
 1247.89        2983.75           1669         123.00       525.73
 1247.92        2984.00           1672         119.00       508.29
HS scan finished at 20:48:18
end
