************************************************************
  HS Scan of (1) Internal mercury lamp
************************************************************
Integration time is 0.2294 seconds per sample
dh090618El Arenosillo 37.1 6.73 2.76pr1000
************************************************************
Dead Time -------------------------  3.2E-08 
Number of Cycles Used -------------  4 
Starting Wavelength (Angstroms) ---  2950 
Final Wavelength (Angstoms) -------  2984 
Wavelength Increment (Angstroms) --  .25 
Filter Wheel #1 Position ---------- (1) Ground quartz diffuser (ND=2.32)
Filter Wheel #2 Position ---------- (1) Neutral Density 0.494



************************************************************
HS scan start time = 01:24:32
Dark Count =  .3 


Time (GMT)  Wavelength (Ang)  Step Number  Raw Counts  Counts/Second

   85.16        2950.00           1211          57.00       247.17
   85.37        2950.25           1215          55.00       238.45
   85.40        2950.50           1218          63.00       273.32
   85.42        2950.75           1222          42.00       181.78
   85.45        2951.00           1225          57.00       247.17
   85.48        2951.25           1228          61.00       264.61
   85.50        2951.50           1232          58.00       251.53
   85.54        2951.75           1235          65.00       282.04
   85.56        2952.00           1238          59.00       255.89
   85.59        2952.25           1242          61.00       264.61
   85.62        2952.50           1245          71.00       308.20
   85.65        2952.75           1249          59.00       255.89
   85.68        2953.00           1252          61.00       264.61
   85.71        2953.25           1255          66.00       286.40
   85.74        2953.50           1259          60.00       260.25
   85.76        2953.75           1262          65.00       282.04
   85.79        2954.00           1265          57.00       247.17
   85.82        2954.25           1269          58.00       251.53
   85.85        2954.50           1272          65.00       282.04
   85.88        2954.75           1276          61.00       264.61
   85.91        2955.00           1279          62.00       268.96
   85.94        2955.25           1282          63.00       273.32
   85.96        2955.50           1286          64.00       277.68
   86.00        2955.75           1289          60.00       260.25
   86.03        2956.00           1293          62.00       268.96
   86.05        2956.25           1296          64.00       277.68
   86.08        2956.50           1299          65.00       282.04
   86.12        2956.75           1303          64.00       277.68
   86.14        2957.00           1306          66.00       286.40
   86.17        2957.25           1309          67.00       290.76
   86.20        2957.50           1313          69.00       299.48
   86.23        2957.75           1316          61.00       264.61
   86.26        2958.00           1320          60.00       260.25
   86.29        2958.25           1323          66.00       286.40
   86.32        2958.50           1326          64.00       277.68
   86.34        2958.75           1330          73.00       316.92
   86.38        2959.00           1333          76.00       329.99
   86.41        2959.25           1336          98.00       425.90
   86.43        2959.50           1340         108.00       469.49
   86.47        2959.75           1343         133.00       578.48
   86.49        2960.00           1347         145.00       630.79
   86.52        2960.25           1350         177.00       770.29
   86.55        2960.50           1353         219.00       953.39
   86.58        2960.75           1357         276.00      1201.88
   86.61        2961.00           1360         433.00      1886.34
   86.63        2961.25           1364        1290.00      5623.07
   86.67        2961.50           1367        3606.00     15725.87
   86.70        2961.75           1370        8437.00     36820.61
   86.72        2962.00           1374       18701.00     81733.55
   86.76        2962.25           1377       27150.00    118801.70
   86.78        2962.50           1380       35239.00    154373.20
   86.81        2962.75           1384       46310.00    203190.00
   86.84        2963.00           1387       54941.00    241354.30
   86.87        2963.25           1391       66271.00    291595.40
   86.90        2963.50           1394       73877.00    325414.20
   86.93        2963.75           1397       82568.00    364147.70
   86.96        2964.00           1401       93661.00    413726.90
   86.99        2964.25           1404      102025.00    451214.10
   87.02        2964.50           1408      112788.00    499587.30
   87.05        2964.75           1411      121575.00    539191.70
   87.08        2965.00           1414      129622.00    575550.00
   87.11        2965.25           1418      141563.00    629660.00
   87.14        2965.50           1421      149916.00    667624.10
   87.17        2965.75           1424      158018.00    704536.60
   87.19        2966.00           1428      168772.00    753668.40
   87.23        2966.25           1431      176267.00    788003.50
   87.26        2966.50           1435      181527.00    812145.50
   87.28        2966.75           1438      182655.00    817327.60
   87.31        2967.00           1441      182453.00    816399.50
   87.34        2967.25           1445      182297.00    815682.80
   87.37        2967.50           1448      181589.00    812430.30
   87.40        2967.75           1452      177320.00    792833.40
   87.43        2968.00           1455      171483.00    766078.80
   87.46        2968.25           1458      163973.00    731723.90
   87.48        2968.50           1462      153504.00    683960.10
   87.52        2968.75           1465      144884.00    644742.70
   87.54        2969.00           1469      134051.00    595597.60
   87.57        2969.25           1472      126246.00    560286.00
   87.60        2969.50           1475      117937.00    522782.40
   87.63        2969.75           1479      106944.00    473303.30
   87.66        2970.00           1482       99267.00    438842.80
   87.69        2970.25           1485       92248.00    407402.80
   87.72        2970.50           1489       81490.00    359338.10
   87.75        2970.75           1492       73925.00    325627.90
   87.78        2971.00           1496       62956.00    276878.70
   87.81        2971.25           1499       54192.00    238038.70
   87.84        2971.50           1502       45863.00    201216.10
   87.87        2971.75           1506       33874.00    148364.90
   87.90        2972.00           1509       25533.00    111700.60
   87.93        2972.25           1513       14338.00     62626.26
   87.95        2972.50           1516        7504.00     32744.41
   87.99        2972.75           1519        2677.00     11672.62
   88.01        2973.00           1523         515.00      2243.84
   88.04        2973.25           1526         290.00      1262.91
   88.07        2973.50           1530         215.00       935.95
   88.10        2973.75           1533         175.00       761.57
   88.13        2974.00           1536         143.00       622.07
   88.15        2974.25           1540         125.00       543.60
   88.19        2974.50           1543          79.00       343.07
   88.21        2974.75           1547          82.00       356.15
   88.24        2975.00           1550          80.00       347.43
   88.28        2975.25           1553          72.00       312.56
   88.30        2975.50           1557          75.00       325.64
   88.33        2975.75           1560          74.00       321.28
   88.36        2976.00           1564          77.00       334.35
   88.39        2976.25           1567          75.00       325.64
   88.42        2976.50           1570          68.00       295.12
   88.45        2976.75           1574          68.00       295.12
   88.48        2977.00           1577          76.00       329.99
   88.50        2977.25           1581          74.00       321.28
   88.53        2977.50           1584          77.00       334.35
   88.56        2977.75           1587          73.00       316.92
   88.59        2978.00           1591          66.00       286.40
   88.62        2978.25           1594          74.00       321.28
   88.65        2978.50           1598          64.00       277.68
   88.68        2978.75           1601          67.00       290.76
   88.70        2979.00           1604          72.00       312.56
   88.74        2979.25           1608          65.00       282.04
   88.77        2979.50           1611          68.00       295.12
   88.79        2979.75           1614          75.00       325.64
   88.83        2980.00           1618          72.00       312.56
   88.85        2980.25           1621          72.00       312.56
   88.88        2980.50           1625          75.00       325.64
   88.91        2980.75           1628          70.00       303.84
   88.94        2981.00           1631          74.00       321.28
   88.97        2981.25           1635          66.00       286.40
   88.99        2981.50           1638          71.00       308.20
   89.03        2981.75           1642          65.00       282.04
   89.05        2982.00           1645          76.00       329.99
   89.08        2982.25           1648          76.00       329.99
   89.11        2982.50           1652          67.00       290.76
   89.14        2982.75           1655          69.00       299.48
   89.17        2983.00           1659          76.00       329.99
   89.20        2983.25           1662          69.00       299.48
   89.23        2983.50           1666          67.00       290.76
   89.25        2983.75           1669          76.00       329.99
   89.28        2984.00           1672          64.00       277.68
HS scan finished at 01:29:39
end
