************************************************************
  HS Scan of (1) Internal mercury lamp
************************************************************
Integration time is 0.2294 seconds per sample
dh160618El Arenosillo 37.1 6.73 3.07pr1000
************************************************************
Dead Time -------------------------  3.2E-08 
Number of Cycles Used -------------  4 
Starting Wavelength (Angstroms) ---  2950 
Final Wavelength (Angstoms) -------  2984 
Wavelength Increment (Angstroms) --  .25 
Filter Wheel #1 Position ---------- (1) Ground quartz diffuser (ND=2.32)
Filter Wheel #2 Position ---------- (1) Neutral Density 0.494



************************************************************
HS scan start time = 01:26:08
Dark Count =  .9 


Time (GMT)  Wavelength (Ang)  Step Number  Raw Counts  Counts/Second

   86.77        2950.00           1211          58.00       248.91
   86.98        2950.25           1215          57.00       244.55
   87.01        2950.50           1218          52.00       222.76
   87.03        2950.75           1222          54.00       231.48
   87.07        2951.00           1225          57.00       244.55
   87.09        2951.25           1228          51.00       218.40
   87.12        2951.50           1232          61.00       261.99
   87.15        2951.75           1235          59.00       253.27
   87.18        2952.00           1238          56.00       240.19
   87.21        2952.25           1242          61.00       261.99
   87.24        2952.50           1245          56.00       240.19
   87.27        2952.75           1249          55.00       235.83
   87.29        2953.00           1252          56.00       240.19
   87.32        2953.25           1255          52.00       222.76
   87.36        2953.50           1259          62.00       266.35
   87.38        2953.75           1262          54.00       231.48
   87.41        2954.00           1265          60.00       257.63
   87.44        2954.25           1269          59.00       253.27
   87.47        2954.50           1272          58.00       248.91
   87.50        2954.75           1276          62.00       266.35
   87.53        2955.00           1279          61.00       261.99
   87.56        2955.25           1282          50.00       214.04
   87.58        2955.50           1286          54.00       231.48
   87.62        2955.75           1289          55.00       235.83
   87.64        2956.00           1293          59.00       253.27
   87.67        2956.25           1296          62.00       266.35
   87.70        2956.50           1299          59.00       253.27
   87.73        2956.75           1303          57.00       244.55
   87.76        2957.00           1306          57.00       244.55
   87.78        2957.25           1309          53.00       227.12
   87.82        2957.50           1313          59.00       253.27
   87.85        2957.75           1316          62.00       266.35
   87.87        2958.00           1320          51.00       218.40
   87.91        2958.25           1323          66.00       283.79
   87.93        2958.50           1326          65.00       279.43
   87.96        2958.75           1330          64.00       275.07
   88.00        2959.00           1333          64.00       275.07
   88.02        2959.25           1336          81.00       349.18
   88.05        2959.50           1340         100.00       432.00
   88.08        2959.75           1343         102.00       440.72
   88.11        2960.00           1347         150.00       649.97
   88.14        2960.25           1350         154.00       667.41
   88.16        2960.50           1353         205.00       889.74
   88.20        2960.75           1357         238.00      1033.60
   88.22        2961.00           1360         317.00      1378.00
   88.25        2961.25           1364        1054.00      4591.35
   88.29        2961.50           1367        2942.00     12826.10
   88.31        2961.75           1370        7044.00     30732.48
   88.34        2962.00           1374       17113.00     74773.74
   88.37        2962.25           1377       25453.00    111346.80
   88.40        2962.50           1380       34690.00    151953.70
   88.43        2962.75           1384       46550.00    204247.40
   88.46        2963.00           1387       55021.00    241705.80
   88.49        2963.25           1391       66502.00    292618.70
   88.51        2963.50           1394       75270.00    331613.30
   88.54        2963.75           1397       83880.00    370000.60
   88.57        2964.00           1401       95420.00    421600.50
   88.60        2964.25           1404      103859.00    459443.50
   88.63        2964.50           1408      115392.00    511310.70
   88.67        2964.75           1411      124707.00    553329.90
   88.69        2965.00           1414      133232.00    591885.80
   88.72        2965.25           1418      144205.00    641654.90
   88.76        2965.50           1421      152828.00    680878.10
   88.78        2965.75           1424      160945.00    717891.00
   88.81        2966.00           1428      172513.00    770793.80
   88.84        2966.25           1431      179763.00    804042.20
   88.87        2966.50           1435      186917.00    836920.80
   88.90        2966.75           1438      189058.00    846774.10
   88.93        2967.00           1441      189059.00    846778.70
   88.96        2967.25           1445      188882.00    845963.80
   88.98        2967.50           1448      189021.00    846603.80
   89.01        2967.75           1452      186435.00    834703.30
   89.04        2968.00           1455      182145.00    814981.70
   89.07        2968.25           1458      175018.00    782273.60
   89.10        2968.50           1462      164187.00    732699.00
   89.13        2968.75           1465      155840.00    694602.30
   89.16        2969.00           1469      143472.00    638325.40
   89.18        2969.25           1472      135024.00    600002.60
   89.21        2969.50           1475      125824.00    558376.30
   89.25        2969.75           1479      113653.00    503478.70
   89.27        2970.00           1482      105770.00    468025.80
   89.30        2970.25           1485       96862.00    428060.30
   89.33        2970.50           1489       85322.00    376439.00
   89.36        2970.75           1492       77121.00    339857.90
   89.39        2971.00           1496       65939.00    290118.20
   89.42        2971.25           1499       57485.00    252618.50
   89.45        2971.50           1502       48636.00    213463.20
   89.48        2971.75           1506       36500.00    159923.10
   89.51        2972.00           1509       28073.00    122853.90
   89.54        2972.25           1513       16514.00     72150.27
   89.56        2972.50           1516        9029.00     39404.93
   89.60        2972.75           1519        3317.00     14462.23
   89.63        2973.00           1523         741.00      3226.58
   89.65        2973.25           1526         341.00      1482.63
   89.68        2973.50           1530         245.00      1064.12
   89.71        2973.75           1533         199.00       863.58
   89.74        2974.00           1536         141.00       610.74
   89.77        2974.25           1540         128.00       554.06
   89.80        2974.50           1543         104.00       449.44
   89.83        2974.75           1547          84.00       362.25
   89.85        2975.00           1550          86.00       370.97
   89.89        2975.25           1553          68.00       292.50
   89.91        2975.50           1557          86.00       370.97
   89.94        2975.75           1560          75.00       323.02
   89.97        2976.00           1564          73.00       314.30
   90.00        2976.25           1567          64.00       275.07
   90.03        2976.50           1570          74.00       318.66
   90.06        2976.75           1574          77.00       331.74
   90.09        2977.00           1577          73.00       314.30
   90.11        2977.25           1581          67.00       288.15
   90.14        2977.50           1584          69.00       296.86
   90.18        2977.75           1587          62.00       266.35
   90.20        2978.00           1591          68.00       292.50
   90.23        2978.25           1594          64.00       275.07
   90.26        2978.50           1598          67.00       288.15
   90.29        2978.75           1601          73.00       314.30
   90.32        2979.00           1604          66.00       283.79
   90.35        2979.25           1608          70.00       301.22
   90.38        2979.50           1611          64.00       275.07
   90.40        2979.75           1614          62.00       266.35
   90.43        2980.00           1618          67.00       288.15
   90.46        2980.25           1621          68.00       292.50
   90.49        2980.50           1625          71.00       305.58
   90.52        2980.75           1628          61.00       261.99
   90.55        2981.00           1631          63.00       270.71
   90.58        2981.25           1635          64.00       275.07
   90.60        2981.50           1638          65.00       279.43
   90.64        2981.75           1642          66.00       283.79
   90.67        2982.00           1645          69.00       296.86
   90.69        2982.25           1648          65.00       279.43
   90.73        2982.50           1652          63.00       270.71
   90.75        2982.75           1655          67.00       288.15
   90.78        2983.00           1659          61.00       261.99
   90.81        2983.25           1662          61.00       261.99
   90.84        2983.50           1666          69.00       296.86
   90.87        2983.75           1669          63.00       270.71
   90.89        2984.00           1672          64.00       275.07
HS scan finished at 01:31:16
end
