************************************************************
  HS Scan of (1) Internal mercury lamp
************************************************************
Integration time is 0.2294 seconds per sample
dh160619El Arenosillo 37.1 6.73 2.88pr1000
************************************************************
Dead Time -------------------------  3.2E-08 
Number of Cycles Used -------------  4 
Starting Wavelength (Angstroms) ---  2950 
Final Wavelength (Angstoms) -------  2984 
Wavelength Increment (Angstroms) --  .25 
Filter Wheel #1 Position ---------- (1) Ground quartz diffuser (ND=2.32)
Filter Wheel #2 Position ---------- (1) Neutral Density 0.494



************************************************************
HS scan start time = 01:23:57
Dark Count =  .5 


Time (GMT)  Wavelength (Ang)  Step Number  Raw Counts  Counts/Second

   84.57        2950.00           1211          38.00       163.47
   84.78        2950.25           1215          39.00       167.83
   84.81        2950.50           1218          35.00       150.39
   84.84        2950.75           1222          36.00       154.75
   84.87        2951.00           1225          36.00       154.75
   84.90        2951.25           1228          35.00       150.39
   84.92        2951.50           1232          37.00       159.11
   84.96        2951.75           1235          40.00       172.19
   84.98        2952.00           1238          37.00       159.11
   85.01        2952.25           1242          37.00       159.11
   85.04        2952.50           1245          36.00       154.75
   85.07        2952.75           1249          33.00       141.67
   85.10        2953.00           1252          37.00       159.11
   85.13        2953.25           1255          41.00       176.55
   85.16        2953.50           1259          38.00       163.47
   85.19        2953.75           1262          39.00       167.83
   85.22        2954.00           1265          38.00       163.47
   85.25        2954.25           1269          44.00       189.63
   85.27        2954.50           1272          43.00       185.27
   85.31        2954.75           1276          35.00       150.39
   85.33        2955.00           1279          40.00       172.19
   85.36        2955.25           1282          39.00       167.83
   85.39        2955.50           1286          42.00       180.91
   85.42        2955.75           1289          43.00       185.27
   85.45        2956.00           1293          32.00       137.32
   85.48        2956.25           1296          40.00       172.19
   85.51        2956.50           1299          37.00       159.11
   85.54        2956.75           1303          41.00       176.55
   85.56        2957.00           1306          45.00       193.99
   85.60        2957.25           1309          40.00       172.19
   85.63        2957.50           1313          37.00       159.11
   85.65        2957.75           1316          39.00       167.83
   85.69        2958.00           1320          38.00       163.47
   85.71        2958.25           1323          39.00       167.83
   85.74        2958.50           1326          40.00       172.19
   85.77        2958.75           1330          44.00       189.63
   85.80        2959.00           1333          42.00       180.91
   85.83        2959.25           1336          58.00       250.66
   85.86        2959.50           1340          55.00       237.58
   85.89        2959.75           1343          78.00       337.84
   85.91        2960.00           1347          85.00       368.36
   85.95        2960.25           1350         107.00       464.26
   85.98        2960.50           1353         128.00       555.81
   86.00        2960.75           1357         161.00       699.67
   86.04        2961.00           1360         200.00       869.68
   86.07        2961.25           1364         611.00      2661.52
   86.09        2961.50           1367        1790.00      7802.73
   86.13        2961.75           1370        4242.00     18500.49
   86.15        2962.00           1374        9711.00     42387.45
   86.18        2962.25           1377       14168.00     61881.36
   86.21        2962.50           1380       18658.00     81544.25
   86.24        2962.75           1384       25132.00    109939.30
   86.27        2963.00           1387       30473.00    133403.90
   86.30        2963.25           1391       37091.00    162527.90
   86.33        2963.50           1394       41752.00    183072.40
   86.36        2963.75           1397       46821.00    205446.10
   86.38        2964.00           1401       53528.00    235099.00
   86.42        2964.25           1404       58321.00    256324.50
   86.45        2964.50           1408       64921.00    285599.60
   86.47        2964.75           1411       69840.00    307454.30
   86.51        2965.00           1414       74748.00    329290.80
   86.53        2965.25           1418       81136.00    357758.10
   86.55        2965.50           1421       63313.00    278462.00
   86.58        2965.75           1424       90622.00    400127.70
   86.61        2966.00           1428       97046.00    428886.60
   86.63        2966.25           1431      101296.00    447942.20
   86.67        2966.50           1435      105193.00    465435.70
   86.70        2966.75           1438      106163.00    469793.20
   86.72        2967.00           1441      106923.00    473208.00
   86.76        2967.25           1445      106327.00    470530.00
   86.78        2967.50           1448      106110.00    469555.00
   86.81        2967.75           1452      104456.00    462125.90
   86.84        2968.00           1455      101774.00    450086.90
   86.87        2968.25           1458       98098.00    433601.20
   86.90        2968.50           1462       92295.00    407612.20
   86.93        2968.75           1465       86624.00    382256.40
   86.96        2969.00           1469       80704.00    355831.30
   86.98        2969.25           1472       75712.00    333583.40
   87.01        2969.50           1475       70347.00    309708.60
   87.05        2969.75           1479       64025.00    281622.00
   87.07        2970.00           1482       59007.00    259364.70
   87.10        2970.25           1485       54321.00    238608.80
   87.13        2970.50           1489       47957.00    210464.60
   87.16        2970.75           1492       43578.00    191128.40
   87.19        2971.00           1496       36797.00    161233.00
   87.22        2971.25           1499       31739.00    138971.10
   87.25        2971.50           1502       26904.00    117720.30
   87.27        2971.75           1506       20269.00     88605.28
   87.31        2972.00           1509       15147.00     66166.54
   87.34        2972.25           1513        8802.00     38414.67
   87.36        2972.50           1516        4870.00     21241.55
   87.40        2972.75           1519        1935.00      8435.14
   87.42        2973.00           1523         415.00      1806.99
   87.45        2973.25           1526         186.00       808.65
   87.48        2973.50           1530         136.00       590.68
   87.51        2973.75           1533         110.00       477.34
   87.54        2974.00           1536          79.00       342.20
   87.57        2974.25           1540          63.00       272.45
   87.60        2974.50           1543          58.00       250.66
   87.62        2974.75           1547          48.00       207.06
   87.66        2975.00           1550          49.00       211.42
   87.69        2975.25           1553          46.00       198.34
   87.71        2975.50           1557          47.00       202.70
   87.74        2975.75           1560          54.00       233.22
   87.77        2976.00           1564          53.00       228.86
   87.80        2976.25           1567          42.00       180.91
   87.83        2976.50           1570          46.00       198.34
   87.86        2976.75           1574          40.00       172.19
   87.89        2977.00           1577          47.00       202.70
   87.91        2977.25           1581          48.00       207.06
   87.95        2977.50           1584          58.00       250.66
   87.97        2977.75           1587          47.00       202.70
   88.00        2978.00           1591          45.00       193.99
   88.03        2978.25           1594          45.00       193.99
   88.06        2978.50           1598          44.00       189.63
   88.09        2978.75           1601          44.00       189.63
   88.12        2979.00           1604          39.00       167.83
   88.15        2979.25           1608          45.00       193.99
   88.17        2979.50           1611          44.00       189.63
   88.21        2979.75           1614          41.00       176.55
   88.24        2980.00           1618          40.00       172.19
   88.26        2980.25           1621          46.00       198.34
   88.30        2980.50           1625          50.00       215.78
   88.32        2980.75           1628          42.00       180.91
   88.35        2981.00           1631          40.00       172.19
   88.38        2981.25           1635          47.00       202.70
   88.41        2981.50           1638          41.00       176.55
   88.44        2981.75           1642          46.00       198.34
   88.47        2982.00           1645          45.00       193.99
   88.50        2982.25           1648          41.00       176.55
   88.53        2982.50           1652          38.00       163.47
   88.56        2982.75           1655          46.00       198.34
   88.59        2983.00           1659          46.00       198.34
   88.61        2983.25           1662          41.00       176.55
   88.64        2983.50           1666          40.00       172.19
   88.67        2983.75           1669          38.00       163.47
   88.70        2984.00           1672          40.00       172.19
HS scan finished at 01:29:04
end
************************************************************
  HS Scan of (1) Internal mercury lamp
************************************************************
Integration time is 0.2294 seconds per sample
dh160619El Arenosillo 37.1 6.73 2.92pr1000
************************************************************
Dead Time -------------------------  3.2E-08 
Number of Cycles Used -------------  4 
Starting Wavelength (Angstroms) ---  2950 
Final Wavelength (Angstoms) -------  2984 
Wavelength Increment (Angstroms) --  .25 
Filter Wheel #1 Position ---------- (1) Ground quartz diffuser (ND=2.32)
Filter Wheel #2 Position ---------- (1) Neutral Density 0.494



************************************************************
HS scan start time = 02:21:04
Dark Count =  .6 


Time (GMT)  Wavelength (Ang)  Step Number  Raw Counts  Counts/Second

  141.68        2950.00           1211          39.00       167.39
  141.90        2950.25           1215          28.00       119.44
  141.92        2950.50           1218          34.00       145.60
  141.95        2950.75           1222          37.00       158.68
  141.99        2951.00           1225          40.00       171.75
  142.01        2951.25           1228          35.00       149.96
  142.04        2951.50           1232          38.00       163.03
  142.07        2951.75           1235          44.00       189.19
  142.10        2952.00           1238          35.00       149.96
  142.13        2952.25           1242          32.00       136.88
  142.16        2952.50           1245          36.00       154.32
  142.19        2952.75           1249          34.00       145.60
  142.22        2953.00           1252          34.00       145.60
  142.25        2953.25           1255          38.00       163.03
  142.28        2953.50           1259          37.00       158.68
  142.30        2953.75           1262          38.00       163.03
  142.33        2954.00           1265          36.00       154.32
  142.36        2954.25           1269          37.00       158.68
  142.39        2954.50           1272          36.00       154.32
  142.42        2954.75           1276          41.00       176.11
  142.45        2955.00           1279          31.00       132.52
  142.48        2955.25           1282          39.00       167.39
  142.50        2955.50           1286          41.00       176.11
  142.54        2955.75           1289          39.00       167.39
  142.57        2956.00           1293          36.00       154.32
  142.59        2956.25           1296          37.00       158.68
  142.63        2956.50           1299          32.00       136.88
  142.65        2956.75           1303          38.00       163.03
  142.68        2957.00           1306          39.00       167.39
  142.71        2957.25           1309          35.00       149.96
  142.74        2957.50           1313          44.00       189.19
  142.77        2957.75           1316          34.00       145.60
  142.80        2958.00           1320          40.00       171.75
  142.83        2958.25           1323          36.00       154.32
  142.85        2958.50           1326          44.00       189.19
  142.88        2958.75           1330          39.00       167.39
  142.91        2959.00           1333          43.00       184.83
  142.94        2959.25           1336          52.00       224.06
  142.97        2959.50           1340          59.00       254.58
  143.00        2959.75           1343          71.00       306.89
  143.03        2960.00           1347          90.00       389.72
  143.05        2960.25           1350         121.00       524.86
  143.09        2960.50           1353         125.00       542.29
  143.12        2960.75           1357         156.00       677.43
  143.14        2961.00           1360         204.00       886.69
  143.18        2961.25           1364         638.00      2778.80
  143.20        2961.50           1367        1961.00      8548.11
  143.23        2961.75           1370        4635.00     20215.34
  143.26        2962.00           1374       10259.00     44782.53
  143.29        2962.25           1377       15128.00     66082.93
  143.32        2962.50           1380       19734.00     86259.57
  143.34        2962.75           1384       25566.00    111844.20
  143.38        2963.00           1387       30460.00    133346.40
  143.40        2963.25           1391       36694.00    160778.90
  143.43        2963.50           1394       41513.00    182017.90
  143.46        2963.75           1397       46595.00    204447.40
  143.49        2964.00           1401       53015.00    232828.50
  143.52        2964.25           1404       57956.00    254706.70
  143.56        2964.50           1408       64589.00    284125.20
  143.58        2964.75           1411       69288.00    304999.80
  143.61        2965.00           1414       74298.00    327286.90
  143.65        2965.25           1418       80668.00    355670.30
  143.67        2965.50           1421       85507.00    377266.50
  143.70        2965.75           1424       90002.00    397354.40
  143.73        2966.00           1428       96189.00    425046.40
  143.76        2966.25           1431      100740.00    445447.50
  143.79        2966.50           1435      104877.00    464016.10
  143.81        2966.75           1438      105963.00    468894.20
  143.85        2967.00           1441      106006.00    469087.30
  143.87        2967.25           1445      106188.00    469905.00
  143.90        2967.50           1448      105889.00    468561.70
  143.93        2967.75           1452      104025.00    460190.10
  143.96        2968.00           1455      101140.00    447241.90
  143.99        2968.25           1458       97059.00    428944.40
  144.02        2968.50           1462       90977.00    401715.10
  144.05        2968.75           1465       86014.00    379531.00
  144.08        2969.00           1469       80061.00    352963.40
  144.11        2969.25           1472       75431.00    332331.50
  144.14        2969.50           1475       70357.00    309752.60
  144.16        2969.75           1479       63577.00    279633.20
  144.19        2970.00           1482       58795.00    258424.70
  144.22        2970.25           1485       53592.00    235381.80
  144.25        2970.50           1489       47205.00    207141.80
  144.28        2970.75           1492       42880.00    188048.00
  144.31        2971.00           1496       36400.00    159484.10
  144.34        2971.25           1499       31569.00    138222.90
  144.37        2971.50           1502       27542.00    120522.40
  144.40        2971.75           1506       20668.00     90354.15
  144.43        2972.00           1509       15844.00     69217.66
  144.46        2972.25           1513        9337.00     40752.33
  144.49        2972.50           1516        5114.00     22306.24
  144.52        2972.75           1519        1890.00      8238.44
  144.54        2973.00           1523         339.00      1475.22
  144.58        2973.25           1526         192.00       834.37
  144.61        2973.50           1530         121.00       524.86
  144.63        2973.75           1533         100.00       433.31
  144.66        2974.00           1536          85.00       367.92
  144.69        2974.25           1540          68.00       293.81
  144.72        2974.50           1543          56.00       241.50
  144.75        2974.75           1547          45.00       193.55
  144.78        2975.00           1550          45.00       193.55
  144.81        2975.25           1553          46.00       197.91
  144.83        2975.50           1557          50.00       215.35
  144.87        2975.75           1560          44.00       189.19
  144.89        2976.00           1564          51.00       219.71
  144.92        2976.25           1567          41.00       176.11
  144.95        2976.50           1570          41.00       176.11
  144.98        2976.75           1574          41.00       176.11
  145.01        2977.00           1577          44.00       189.19
  145.04        2977.25           1581          43.00       184.83
  145.07        2977.50           1584          44.00       189.19
  145.10        2977.75           1587          42.00       180.47
  145.13        2978.00           1591          38.00       163.03
  145.16        2978.25           1594          43.00       184.83
  145.18        2978.50           1598          44.00       189.19
  145.21        2978.75           1601          45.00       193.55
  145.24        2979.00           1604          40.00       171.75
  145.27        2979.25           1608          43.00       184.83
  145.30        2979.50           1611          45.00       193.55
  145.33        2979.75           1614          43.00       184.83
  145.36        2980.00           1618          42.00       180.47
  145.38        2980.25           1621          39.00       167.39
  145.42        2980.50           1625          50.00       215.35
  145.45        2980.75           1628          43.00       184.83
  145.47        2981.00           1631          39.00       167.39
  145.50        2981.25           1635          37.00       158.68
  145.53        2981.50           1638          48.00       206.63
  145.56        2981.75           1642          42.00       180.47
  145.59        2982.00           1645          39.00       167.39
  145.62        2982.25           1648          49.00       210.99
  145.65        2982.50           1652          44.00       189.19
  145.67        2982.75           1655          38.00       163.03
  145.71        2983.00           1659          34.00       145.60
  145.73        2983.25           1662          39.00       167.39
  145.76        2983.50           1666          38.00       163.03
  145.79        2983.75           1669          43.00       184.83
  145.82        2984.00           1672          44.00       189.19
HS scan finished at 02:26:11
end
