************************************************************
  HS Scan of (1) Internal mercury lamp
************************************************************
Integration time is 0.2294 seconds per sample
dh140619El Arenosillo 37.1 6.73 2.92pr1000
************************************************************
Dead Time -------------------------  3.2E-08 
Number of Cycles Used -------------  4 
Starting Wavelength (Angstroms) ---  2950 
Final Wavelength (Angstoms) -------  2984 
Wavelength Increment (Angstroms) --  .25 
Filter Wheel #1 Position ---------- (1) Ground quartz diffuser (ND=2.32)
Filter Wheel #2 Position ---------- (1) Neutral Density 0.494



************************************************************
HS scan start time = 21:45:50
Dark Count =  .8 


Time (GMT)  Wavelength (Ang)  Step Number  Raw Counts  Counts/Second

 1306.46        2950.00           1211          34.00       144.73
 1306.67        2950.25           1215          44.00       188.32
 1306.69        2950.50           1218          35.00       149.09
 1306.72        2950.75           1222          36.00       153.44
 1306.75        2951.00           1225          36.00       153.44
 1306.78        2951.25           1228          39.00       166.52
 1306.80        2951.50           1232          35.00       149.09
 1306.83        2951.75           1235          37.00       157.80
 1306.86        2952.00           1238          32.00       136.01
 1306.89        2952.25           1242          36.00       153.44
 1306.92        2952.50           1245          36.00       153.44
 1306.94        2952.75           1249          33.00       140.37
 1306.97        2953.00           1252          38.00       162.16
 1306.99        2953.25           1255          35.00       149.09
 1307.03        2953.50           1259          37.00       157.80
 1307.05        2953.75           1262          39.00       166.52
 1307.08        2954.00           1265          41.00       175.24
 1307.11        2954.25           1269          34.00       144.73
 1307.13        2954.50           1272          40.00       170.88
 1307.16        2954.75           1276          42.00       179.60
 1307.19        2955.00           1279          34.00       144.73
 1307.22        2955.25           1282          39.00       166.52
 1307.24        2955.50           1286          38.00       162.16
 1307.27        2955.75           1289          41.00       175.24
 1307.30        2956.00           1293          39.00       166.52
 1307.33        2956.25           1296          38.00       162.16
 1307.36        2956.50           1299          34.00       144.73
 1307.38        2956.75           1303          38.00       162.16
 1307.41        2957.00           1306          36.00       153.44
 1307.44        2957.25           1309          40.00       170.88
 1307.46        2957.50           1313          39.00       166.52
 1307.49        2957.75           1316          42.00       179.60
 1307.52        2958.00           1320          35.00       149.09
 1307.55        2958.25           1323          35.00       149.09
 1307.58        2958.50           1326          44.00       188.32
 1307.60        2958.75           1330          38.00       162.16
 1307.63        2959.00           1333          38.00       162.16
 1307.66        2959.25           1336          46.00       197.04
 1307.69        2959.50           1340          53.00       227.55
 1307.71        2959.75           1343          64.00       275.50
 1307.74        2960.00           1347          80.00       345.25
 1307.77        2960.25           1350          86.00       371.41
 1307.80        2960.50           1353         114.00       493.47
 1307.82        2960.75           1357         138.00       598.09
 1307.85        2961.00           1360         163.00       707.08
 1307.88        2961.25           1364         284.00      1234.57
 1307.91        2961.50           1367         747.00      3253.17
 1307.94        2961.75           1370        2333.00     10169.83
 1307.96        2962.00           1374        6670.00     29099.45
 1307.99        2962.25           1377       11135.00     48611.74
 1308.02        2962.50           1380       15971.00     69772.88
 1308.04        2962.75           1384       22583.00     98751.84
 1308.07        2963.00           1387       27069.00    118443.70
 1308.10        2963.25           1391       32960.00    144340.80
 1308.13        2963.50           1394       37848.00    165861.40
 1308.16        2963.75           1397       42408.00    185964.70
 1308.18        2964.00           1401       48762.00    214020.50
 1308.21        2964.25           1404       53879.00    236651.10
 1308.24        2964.50           1408       60163.00    264488.00
 1308.26        2964.75           1411       47820.00    209858.00
 1308.28        2965.00           1414       70081.00    308524.50
 1308.31        2965.25           1418       76590.00    337492.70
 1308.34        2965.50           1421       81325.00    358599.80
 1308.36        2965.75           1424       86062.00    379744.50
 1308.39        2966.00           1428       91498.00    404044.90
 1308.42        2966.25           1431       96449.00    426210.40
 1308.45        2966.50           1435      101830.00    450336.90
 1308.47        2966.75           1438      104337.00    461590.20
 1308.50        2967.00           1441      105485.00    466746.00
 1308.53        2967.25           1445      105646.00    467469.20
 1308.56        2967.50           1448      105240.00    465645.60
 1308.58        2967.75           1452      104907.00    464149.90
 1308.61        2968.00           1455      102789.00    454640.60
 1308.64        2968.25           1458       99347.00    439199.30
 1308.67        2968.50           1462       93392.00    412520.50
 1308.70        2968.75           1465       88975.00    392761.60
 1308.72        2969.00           1469       82756.00    364984.40
 1308.75        2969.25           1472       78218.00    344746.60
 1308.77        2969.50           1475       73589.00    324130.10
 1308.80        2969.75           1479       67008.00    294866.90
 1308.83        2970.00           1482       62293.00    273934.80
 1308.86        2970.25           1485       57611.00    253177.20
 1308.89        2970.50           1489       51488.00    226072.50
 1308.92        2970.75           1492       46333.00    203289.40
 1308.94        2971.00           1496       40289.00    176619.60
 1308.97        2971.25           1499       35409.00    155119.40
 1309.00        2971.50           1502       30790.00    134796.40
 1309.03        2971.75           1506       24383.00    106650.20
 1309.06        2972.00           1509       19418.00     84873.61
 1309.08        2972.25           1513       13044.00     56961.62
 1309.11        2972.50           1516        8148.00     35555.69
 1309.14        2972.75           1519        4079.00     17787.80
 1309.17        2973.00           1523         876.00      3815.64
 1309.19        2973.25           1526         295.00      1282.53
 1309.22        2973.50           1530         153.00       663.48
 1309.25        2973.75           1533         115.00       497.83
 1309.28        2974.00           1536          89.00       384.49
 1309.31        2974.25           1540          70.00       301.66
 1309.33        2974.50           1543          56.00       240.63
 1309.36        2974.75           1547          59.00       253.71
 1309.38        2975.00           1550          50.00       214.47
 1309.41        2975.25           1553          48.00       205.76
 1309.44        2975.50           1557          49.00       210.11
 1309.47        2975.75           1560          48.00       205.76
 1309.50        2976.00           1564          42.00       179.60
 1309.52        2976.25           1567          47.00       201.40
 1309.55        2976.50           1570          40.00       170.88
 1309.58        2976.75           1574          49.00       210.11
 1309.61        2977.00           1577          45.00       192.68
 1309.63        2977.25           1581          49.00       210.11
 1309.66        2977.50           1584          44.00       188.32
 1309.69        2977.75           1587          53.00       227.55
 1309.71        2978.00           1591          49.00       210.11
 1309.74        2978.25           1594          43.00       183.96
 1309.77        2978.50           1598          49.00       210.11
 1309.80        2978.75           1601          45.00       192.68
 1309.82        2979.00           1604          46.00       197.04
 1309.85        2979.25           1608          47.00       201.40
 1309.88        2979.50           1611          47.00       201.40
 1309.91        2979.75           1614          48.00       205.76
 1309.93        2980.00           1618          39.00       166.52
 1309.96        2980.25           1621          43.00       183.96
 1309.99        2980.50           1625          51.00       218.83
 1310.01        2980.75           1628          42.00       179.60
 1310.05        2981.00           1631          48.00       205.76
 1310.07        2981.25           1635          46.00       197.04
 1310.10        2981.50           1638          45.00       192.68
 1310.13        2981.75           1642          42.00       179.60
 1310.15        2982.00           1645          44.00       188.32
 1310.18        2982.25           1648          42.00       179.60
 1310.21        2982.50           1652          39.00       166.52
 1310.24        2982.75           1655          38.00       162.16
 1310.26        2983.00           1659          39.00       166.52
 1310.29        2983.25           1662          42.00       179.60
 1310.32        2983.50           1666          46.00       197.04
 1310.35        2983.75           1669          38.00       162.16
 1310.38        2984.00           1672          44.00       188.32
HS scan finished at 21:50:45
end
