************************************************************
  HS Scan of (1) Internal mercury lamp
************************************************************
Integration time is 0.2294 seconds per sample
dh180619El Arenosillo 37.1 6.73 2.86pr1000
************************************************************
Dead Time -------------------------  3.2E-08 
Number of Cycles Used -------------  4 
Starting Wavelength (Angstroms) ---  2950 
Final Wavelength (Angstoms) -------  2984 
Wavelength Increment (Angstroms) --  .25 
Filter Wheel #1 Position ---------- (1) Ground quartz diffuser (ND=2.32)
Filter Wheel #2 Position ---------- (1) Neutral Density 0.494



************************************************************
HS scan start time = 02:27:17
Dark Count =  .6 


Time (GMT)  Wavelength (Ang)  Step Number  Raw Counts  Counts/Second

  147.90        2950.00           1211          39.00       167.39
  148.11        2950.25           1215          35.00       149.96
  148.14        2950.50           1218          46.00       197.91
  148.17        2950.75           1222          41.00       176.11
  148.20        2951.00           1225          33.00       141.24
  148.23        2951.25           1228          33.00       141.24
  148.26        2951.50           1232          36.00       154.32
  148.29        2951.75           1235          34.00       145.60
  148.32        2952.00           1238          34.00       145.60
  148.35        2952.25           1242          32.00       136.88
  148.38        2952.50           1245          33.00       141.24
  148.40        2952.75           1249          33.00       141.24
  148.44        2953.00           1252          39.00       167.39
  148.47        2953.25           1255          37.00       158.68
  148.49        2953.50           1259          37.00       158.68
  148.53        2953.75           1262          36.00       154.32
  148.55        2954.00           1265          33.00       141.24
  148.58        2954.25           1269          40.00       171.75
  148.61        2954.50           1272          34.00       145.60
  148.64        2954.75           1276          33.00       141.24
  148.67        2955.00           1279          40.00       171.75
  148.70        2955.25           1282          42.00       180.47
  148.73        2955.50           1286          40.00       171.75
  148.75        2955.75           1289          39.00       167.39
  148.79        2956.00           1293          36.00       154.32
  148.82        2956.25           1296          44.00       189.19
  148.84        2956.50           1299          35.00       149.96
  148.88        2956.75           1303          37.00       158.68
  148.90        2957.00           1306          41.00       176.11
  148.93        2957.25           1309          40.00       171.75
  148.96        2957.50           1313          40.00       171.75
  148.99        2957.75           1316          38.00       163.03
  149.02        2958.00           1320          42.00       180.47
  149.05        2958.25           1323          39.00       167.39
  149.08        2958.50           1326          42.00       180.47
  149.10        2958.75           1330          48.00       206.63
  149.14        2959.00           1333          45.00       193.55
  149.16        2959.25           1336          55.00       237.14
  149.19        2959.50           1340          65.00       280.73
  149.23        2959.75           1343          76.00       328.69
  149.25        2960.00           1347          92.00       398.44
  149.28        2960.25           1350         102.00       442.03
  149.31        2960.50           1353         134.00       581.53
  149.34        2960.75           1357         152.00       660.00
  149.37        2961.00           1360         174.00       755.90
  149.40        2961.25           1364         444.00      1932.99
  149.43        2961.50           1367        1436.00      6258.45
  149.45        2961.75           1370        3516.00     15331.85
  149.49        2962.00           1374        8656.00     37776.25
  149.51        2962.25           1377       13615.00     59460.90
  149.54        2962.50           1380       18179.00     79444.96
  149.58        2962.75           1384       24236.00    106005.90
  149.60        2963.00           1387       29518.00    129205.30
  149.63        2963.25           1391       35850.00    157062.00
  149.66        2963.50           1394       40428.00    177233.40
  149.69        2963.75           1397       45486.00    199550.10
  149.72        2964.00           1401       51920.00    227984.20
  149.75        2964.25           1404       56723.00    249244.20
  149.78        2964.50           1408       63477.00    279189.40
  149.81        2964.75           1411       67705.00    297964.50
  149.84        2965.00           1414       73159.00    322217.30
  149.87        2965.25           1418       78902.00    347796.10
  149.90        2965.50           1421       83928.00    370216.20
  149.93        2965.75           1424       88593.00    391054.90
  149.96        2966.00           1428       94696.00    418359.50
  149.98        2966.25           1431       98963.00    437478.50
  150.02        2966.50           1435      103073.00    455916.20
  150.05        2966.75           1438      104647.00    462983.10
  150.07        2967.00           1441      104760.00    463490.70
  150.11        2967.25           1445      104893.00    464087.90
  150.13        2967.50           1448      104512.00    462376.90
  150.16        2967.75           1452      102600.00    453793.20
  150.19        2968.00           1455      100090.00    442532.10
  150.22        2968.25           1458       95712.00    422909.70
  150.25        2968.50           1462       89494.00    395082.90
  150.28        2968.75           1465       84894.00    374529.10
  150.31        2969.00           1469       79219.00    349209.30
  150.33        2969.25           1472       74512.00    328239.60
  150.37        2969.50           1475       69757.00    307084.90
  150.40        2969.75           1479       63116.00    277587.40
  150.42        2970.00           1482       58462.00    256948.90
  150.46        2970.25           1485       53563.00    235253.50
  150.48        2970.50           1489       47112.00    206731.00
  150.51        2970.75           1492       42616.00    186883.20
  150.55        2971.00           1496       36267.00    158898.30
  150.57        2971.25           1499       31314.00    137101.50
  150.60        2971.50           1502       27158.00    118835.50
  150.63        2971.75           1506       20918.00     91450.32
  150.66        2972.00           1509       15802.00     69033.77
  150.69        2972.25           1513        9141.00     39895.72
  150.72        2972.50           1516        4995.00     21786.76
  150.75        2972.75           1519        1895.00      8260.25
  150.78        2973.00           1523         369.00      1606.01
  150.81        2973.25           1526         178.00       773.34
  150.84        2973.50           1530         185.00       803.86
  150.86        2973.75           1533         137.00       594.61
  150.90        2974.00           1536          79.00       341.76
  150.92        2974.25           1540          62.00       267.66
  150.95        2974.50           1543          60.00       258.94
  150.98        2974.75           1547          48.00       206.63
  151.01        2975.00           1550          48.00       206.63
  151.04        2975.25           1553          48.00       206.63
  151.07        2975.50           1557          41.00       176.11
  151.10        2975.75           1560          47.00       202.27
  151.12        2976.00           1564          45.00       193.55
  151.16        2976.25           1567          45.00       193.55
  151.19        2976.50           1570          47.00       202.27
  151.21        2976.75           1574          51.00       219.71
  151.25        2977.00           1577          48.00       206.63
  151.27        2977.25           1581          48.00       206.63
  151.30        2977.50           1584          47.00       202.27
  151.33        2977.75           1587          41.00       176.11
  151.36        2978.00           1591          43.00       184.83
  151.39        2978.25           1594          49.00       210.99
  151.42        2978.50           1598          43.00       184.83
  151.45        2978.75           1601          47.00       202.27
  151.47        2979.00           1604          45.00       193.55
  151.51        2979.25           1608          56.00       241.50
  151.54        2979.50           1611          40.00       171.75
  151.56        2979.75           1614          45.00       193.55
  151.60        2980.00           1618          42.00       180.47
  151.62        2980.25           1621          48.00       206.63
  151.65        2980.50           1625          46.00       197.91
  151.68        2980.75           1628          41.00       176.11
  151.71        2981.00           1631          47.00       202.27
  151.74        2981.25           1635          40.00       171.75
  151.77        2981.50           1638          39.00       167.39
  151.80        2981.75           1642          31.00       132.52
  151.82        2982.00           1645          41.00       176.11
  151.86        2982.25           1648          43.00       184.83
  151.88        2982.50           1652          47.00       202.27
  151.91        2982.75           1655          44.00       189.19
  151.95        2983.00           1659          42.00       180.47
  151.97        2983.25           1662          44.00       189.19
  152.00        2983.50           1666          46.00       197.91
  152.03        2983.75           1669          47.00       202.27
  152.06        2984.00           1672          41.00       176.11
HS scan finished at 02:32:26
end
