************************************************************
  HS Scan of (1) Internal mercury lamp
************************************************************
Integration time is 0.2294 seconds per sample
dh170619El Arenosillo 37.1 6.73 2.84pr1000
************************************************************
Dead Time -------------------------  3.2E-08 
Number of Cycles Used -------------  4 
Starting Wavelength (Angstroms) ---  2950 
Final Wavelength (Angstoms) -------  2984 
Wavelength Increment (Angstroms) --  .25 
Filter Wheel #1 Position ---------- (1) Ground quartz diffuser (ND=2.32)
Filter Wheel #2 Position ---------- (1) Neutral Density 0.494



************************************************************
HS scan start time = 02:12:39
Dark Count =  .6 


Time (GMT)  Wavelength (Ang)  Step Number  Raw Counts  Counts/Second

  133.28        2950.00           1211          34.00       145.60
  133.49        2950.25           1215          45.00       193.55
  133.52        2950.50           1218          43.00       184.83
  133.55        2950.75           1222          38.00       163.03
  133.57        2951.00           1225          41.00       176.11
  133.60        2951.25           1228          40.00       171.75
  133.63        2951.50           1232          43.00       184.83
  133.66        2951.75           1235          36.00       154.32
  133.69        2952.00           1238          42.00       180.47
  133.71        2952.25           1242          42.00       180.47
  133.75        2952.50           1245          42.00       180.47
  133.78        2952.75           1249          42.00       180.47
  133.80        2953.00           1252          40.00       171.75
  133.84        2953.25           1255          34.00       145.60
  133.87        2953.50           1259          41.00       176.11
  133.89        2953.75           1262          37.00       158.68
  133.93        2954.00           1265          38.00       163.03
  133.95        2954.25           1269          36.00       154.32
  133.98        2954.50           1272          42.00       180.47
  134.01        2954.75           1276          33.00       141.24
  134.04        2955.00           1279          40.00       171.75
  134.07        2955.25           1282          46.00       197.91
  134.10        2955.50           1286          39.00       167.39
  134.13        2955.75           1289          36.00       154.32
  134.15        2956.00           1293          36.00       154.32
  134.18        2956.25           1296          39.00       167.39
  134.21        2956.50           1299          44.00       189.19
  134.24        2956.75           1303          37.00       158.68
  134.27        2957.00           1306          40.00       171.75
  134.30        2957.25           1309          40.00       171.75
  134.33        2957.50           1313          38.00       163.03
  134.35        2957.75           1316          37.00       158.68
  134.39        2958.00           1320          39.00       167.39
  134.42        2958.25           1323          37.00       158.68
  134.44        2958.50           1326          44.00       189.19
  134.48        2958.75           1330          43.00       184.83
  134.50        2959.00           1333          44.00       189.19
  134.53        2959.25           1336          53.00       228.42
  134.56        2959.50           1340          54.00       232.78
  134.59        2959.75           1343          66.00       285.09
  134.62        2960.00           1347          82.00       354.84
  134.65        2960.25           1350         123.00       533.57
  134.68        2960.50           1353         116.00       503.06
  134.70        2960.75           1357         149.00       646.92
  134.73        2961.00           1360         288.00      1252.88
  134.77        2961.25           1364         966.00      4208.94
  134.79        2961.50           1367        2512.00     10951.53
  134.82        2961.75           1370        5495.00     23969.56
  134.85        2962.00           1374       11036.00     48179.72
  134.88        2962.25           1377       15630.00     68280.68
  134.91        2962.50           1380       20550.00     89836.80
  134.94        2962.75           1384       26577.00    116283.70
  134.97        2963.00           1387       31202.00    136609.00
  134.99        2963.25           1391       37834.00    165800.60
  135.03        2963.50           1394       43195.00    189437.80
  135.06        2963.75           1397       48071.00    210967.80
  135.08        2964.00           1401       54798.00    240719.90
  135.12        2964.25           1404       60060.00    264032.30
  135.14        2964.50           1408       66585.00    292988.70
  135.17        2964.75           1411       71386.00    314329.00
  135.20        2965.00           1414       76662.00    337814.40
  135.23        2965.25           1418       83058.00    366333.00
  135.26        2965.50           1421       87893.00    387926.20
  135.29        2965.75           1424       92201.00    407191.10
  135.32        2966.00           1428       98375.00    434842.40
  135.35        2966.25           1431      101769.00    450064.00
  135.38        2966.50           1435      105174.00    465350.00
  135.41        2966.75           1438      105781.00    468076.60
  135.43        2967.00           1441      106273.00    470286.90
  135.46        2967.25           1445      105569.00    467124.20
  135.49        2967.50           1448      105364.00    466203.40
  135.52        2967.75           1452      103091.00    455997.00
  135.55        2968.00           1455      100081.00    442491.70
  135.58        2968.25           1458       95796.00    423286.00
  135.61        2968.50           1462       90013.00    397403.60
  135.63        2968.75           1465       85648.00    377896.30
  135.67        2969.00           1469       80037.00    352856.40
  135.70        2969.25           1472       74775.00    329410.50
  135.72        2969.50           1475       70264.00    309339.10
  135.76        2969.75           1479       64229.00    282527.10
  135.78        2970.00           1482       58482.00    257037.50
  135.81        2970.25           1485       54044.00    237382.20
  135.84        2970.50           1489       47493.00    208414.10
  135.87        2970.75           1492       42403.00    185943.60
  135.90        2971.00           1496       36095.00    158140.90
  135.93        2971.25           1499       31289.00    136991.60
  135.96        2971.50           1502       26673.00    116705.30
  135.99        2971.75           1506       20104.00     87881.50
  136.02        2972.00           1509       15485.00     67645.85
  136.05        2972.25           1513        9257.00     40402.68
  136.08        2972.50           1516        4967.00     21664.54
  136.11        2972.75           1519        1938.00      8447.79
  136.14        2973.00           1523         385.00      1675.77
  136.16        2973.25           1526         188.00       816.94
  136.19        2973.50           1530         133.00       577.17
  136.22        2973.75           1533         111.00       481.26
  136.25        2974.00           1536          89.00       385.36
  136.28        2974.25           1540          82.00       354.84
  136.31        2974.50           1543          63.00       272.02
  136.34        2974.75           1547          59.00       254.58
  136.36        2975.00           1550          58.00       250.22
  136.40        2975.25           1553          53.00       228.42
  136.43        2975.50           1557          45.00       193.55
  136.45        2975.75           1560          48.00       206.63
  136.49        2976.00           1564          47.00       202.27
  136.51        2976.25           1567          44.00       189.19
  136.54        2976.50           1570          40.00       171.75
  136.57        2976.75           1574          51.00       219.71
  136.60        2977.00           1577          43.00       184.83
  136.63        2977.25           1581          46.00       197.91
  136.66        2977.50           1584          46.00       197.91
  136.69        2977.75           1587          48.00       206.63
  136.71        2978.00           1591          44.00       189.19
  136.74        2978.25           1594          47.00       202.27
  136.77        2978.50           1598          42.00       180.47
  136.80        2978.75           1601          41.00       176.11
  136.83        2979.00           1604          49.00       210.99
  136.86        2979.25           1608          45.00       193.55
  136.89        2979.50           1611          46.00       197.91
  136.92        2979.75           1614          42.00       180.47
  136.95        2980.00           1618          47.00       202.27
  136.98        2980.25           1621          46.00       197.91
  137.00        2980.50           1625          44.00       189.19
  137.04        2980.75           1628          53.00       228.42
  137.07        2981.00           1631          49.00       210.99
  137.09        2981.25           1635          41.00       176.11
  137.13        2981.50           1638          42.00       180.47
  137.15        2981.75           1642          43.00       184.83
  137.18        2982.00           1645          45.00       193.55
  137.21        2982.25           1648          44.00       189.19
  137.24        2982.50           1652          41.00       176.11
  137.27        2982.75           1655          43.00       184.83
  137.30        2983.00           1659          41.00       176.11
  137.33        2983.25           1662          38.00       163.03
  137.35        2983.50           1666          44.00       189.19
  137.38        2983.75           1669          49.00       210.99
  137.41        2984.00           1672          40.00       171.75
HS scan finished at 02:17:47
end
************************************************************
  HS Scan of (1) Internal mercury lamp
************************************************************
Integration time is 0.2294 seconds per sample
dh170619El Arenosillo 37.1 6.73 2.88pr1000
************************************************************
Dead Time -------------------------  3.2E-08 
Number of Cycles Used -------------  4 
Starting Wavelength (Angstroms) ---  2950 
Final Wavelength (Angstoms) -------  2984 
Wavelength Increment (Angstroms) --  .25 
Filter Wheel #1 Position ---------- (1) Ground quartz diffuser (ND=2.32)
Filter Wheel #2 Position ---------- (1) Neutral Density 0.494



************************************************************
HS scan start time = 21:48:05
Dark Count =  .3 


Time (GMT)  Wavelength (Ang)  Step Number  Raw Counts  Counts/Second

 1308.71        2950.00           1211          38.00       164.34
 1308.92        2950.25           1215          41.00       177.42
 1308.95        2950.50           1218          36.00       155.62
 1308.98        2950.75           1222          38.00       164.34
 1309.01        2951.00           1225          37.00       159.98
 1309.03        2951.25           1228          35.00       151.26
 1309.06        2951.50           1232          44.00       190.50
 1309.09        2951.75           1235          42.00       181.78
 1309.11        2952.00           1238          39.00       168.70
 1309.14        2952.25           1242          37.00       159.98
 1309.17        2952.50           1245          37.00       159.98
 1309.20        2952.75           1249          34.00       146.91
 1309.23        2953.00           1252          40.00       173.06
 1309.26        2953.25           1255          41.00       177.42
 1309.29        2953.50           1259          40.00       173.06
 1309.31        2953.75           1262          42.00       181.78
 1309.35        2954.00           1265          43.00       186.14
 1309.38        2954.25           1269          42.00       181.78
 1309.40        2954.50           1272          36.00       155.62
 1309.44        2954.75           1276          39.00       168.70
 1309.46        2955.00           1279          45.00       194.86
 1309.49        2955.25           1282          40.00       173.06
 1309.52        2955.50           1286          38.00       164.34
 1309.55        2955.75           1289          40.00       173.06
 1309.58        2956.00           1293          38.00       164.34
 1309.61        2956.25           1296          32.00       138.19
 1309.64        2956.50           1299          39.00       168.70
 1309.67        2956.75           1303          30.00       129.47
 1309.70        2957.00           1306          41.00       177.42
 1309.73        2957.25           1309          40.00       173.06
 1309.75        2957.50           1313          38.00       164.34
 1309.79        2957.75           1316          42.00       181.78
 1309.81        2958.00           1320          39.00       168.70
 1309.84        2958.25           1323          38.00       164.34
 1309.88        2958.50           1326          39.00       168.70
 1309.90        2958.75           1330          40.00       173.06
 1309.93        2959.00           1333          48.00       207.94
 1309.96        2959.25           1336          53.00       229.73
 1309.99        2959.50           1340          64.00       277.68
 1310.02        2959.75           1343          69.00       299.48
 1310.05        2960.00           1347          87.00       377.95
 1310.08        2960.25           1350         104.00       452.06
 1310.10        2960.50           1353         144.00       626.43
 1310.14        2960.75           1357         144.00       626.43
 1310.16        2961.00           1360         187.00       813.88
 1310.19        2961.25           1364         463.00      2017.13
 1310.23        2961.50           1367        1421.00      6194.34
 1310.25        2961.75           1370        3395.00     14805.18
 1310.28        2962.00           1374        8348.00     36431.72
 1310.31        2962.25           1377       12886.00     56272.56
 1310.34        2962.50           1380       17493.00     76440.90
 1310.37        2962.75           1384       23763.00    103931.40
 1310.40        2963.00           1387       28761.00    125879.60
 1310.43        2963.25           1391       34917.00    152955.60
 1310.46        2963.50           1394       39705.00    174047.30
 1310.49        2963.75           1397       44264.00    194156.80
 1310.52        2964.00           1401       50845.00    223231.10
 1310.54        2964.25           1404       55637.00    244435.90
 1310.58        2964.50           1408       61873.00    272073.80
 1310.61        2964.75           1411       66528.00    292736.90
 1310.63        2965.00           1414       71321.00    314041.20
 1310.66        2965.25           1418       78005.00    343799.60
 1310.70        2965.50           1421       83221.00    367061.80
 1310.72        2965.75           1424       87705.00    387087.40
 1310.75        2966.00           1428       94093.00    415660.90
 1310.77        2966.25           1431       98567.00    435704.50
 1310.80        2966.50           1435      102725.00    454355.60
 1310.83        2966.75           1438      103608.00    458319.30
 1310.86        2967.00           1441      104226.00    461094.00
 1310.89        2967.25           1445      104273.00    461305.10
 1310.91        2967.50           1448      104209.00    461017.70
 1310.95        2967.75           1452      102150.00    451775.00
 1310.97        2968.00           1455       99766.00    441080.40
 1311.00        2968.25           1458       95695.00    422834.90
 1311.04        2968.50           1462       89784.00    396381.00
 1311.06        2968.75           1465       85161.00    375722.70
 1311.09        2969.00           1469       78447.00    345769.50
 1311.12        2969.25           1472       74211.00    326901.00
 1311.15        2969.50           1475       69339.00    305227.90
 1311.18        2969.75           1479       62971.00    276945.30
 1311.21        2970.00           1482       58692.00    257969.50
 1311.24        2970.25           1485       54277.00    238414.90
 1311.26        2970.50           1489       48076.00    210991.30
 1311.30        2970.75           1492       43972.00    192868.00
 1311.32        2971.00           1496       37698.00    165202.80
 1311.35        2971.25           1499       32814.00    143700.70
 1311.39        2971.50           1502       28288.00    123801.20
 1311.41        2971.75           1506       21651.00     94666.02
 1311.44        2972.00           1509       16545.00     72288.65
 1311.47        2972.25           1513       10036.00     43808.98
 1311.50        2972.50           1516        5738.00     25031.82
 1311.53        2972.75           1519        2527.00     11018.27
 1311.56        2973.00           1523         480.00      2091.25
 1311.59        2973.25           1526         208.00       905.43
 1311.62        2973.50           1530         124.00       539.24
 1311.65        2973.75           1533         106.00       460.77
 1311.68        2974.00           1536          77.00       334.35
 1311.70        2974.25           1540          65.00       282.04
 1311.74        2974.50           1543          57.00       247.17
 1311.77        2974.75           1547          56.00       242.81
 1311.79        2975.00           1550          49.00       212.29
 1311.83        2975.25           1553          49.00       212.29
 1311.85        2975.50           1557          44.00       190.50
 1311.88        2975.75           1560          45.00       194.86
 1311.91        2976.00           1564          50.00       216.65
 1311.94        2976.25           1567          42.00       181.78
 1311.97        2976.50           1570          49.00       212.29
 1312.00        2976.75           1574          48.00       207.94
 1312.03        2977.00           1577          46.00       199.22
 1312.05        2977.25           1581          45.00       194.86
 1312.08        2977.50           1584          46.00       199.22
 1312.11        2977.75           1587          45.00       194.86
 1312.13        2978.00           1591          49.00       212.29
 1312.16        2978.25           1594          48.00       207.94
 1312.19        2978.50           1598          42.00       181.78
 1312.22        2978.75           1601          53.00       229.73
 1312.25        2979.00           1604          40.00       173.06
 1312.28        2979.25           1608          46.00       199.22
 1312.31        2979.50           1611          40.00       173.06
 1312.33        2979.75           1614          47.00       203.58
 1312.37        2980.00           1618          46.00       199.22
 1312.39        2980.25           1621          43.00       186.14
 1312.42        2980.50           1625          49.00       212.29
 1312.46        2980.75           1628          49.00       212.29
 1312.48        2981.00           1631          49.00       212.29
 1312.51        2981.25           1635          48.00       207.94
 1312.54        2981.50           1638          47.00       203.58
 1312.57        2981.75           1642          45.00       194.86
 1312.60        2982.00           1645          39.00       168.70
 1312.63        2982.25           1648          42.00       181.78
 1312.66        2982.50           1652          48.00       207.94
 1312.68        2982.75           1655          40.00       173.06
 1312.72        2983.00           1659          44.00       190.50
 1312.75        2983.25           1662          36.00       155.62
 1312.77        2983.50           1666          43.00       186.14
 1312.81        2983.75           1669          38.00       164.34
 1312.83        2984.00           1672          42.00       181.78
HS scan finished at 21:53:12
end
