************************************************************
  HS Scan of (1) Internal mercury lamp
************************************************************
Integration time is 0.2294 seconds per sample
dh180619El Arenosillo 37.1 6.73 2.86pr1000
************************************************************
Dead Time -------------------------  3.2E-08 
Number of Cycles Used -------------  4 
Starting Wavelength (Angstroms) ---  2950 
Final Wavelength (Angstoms) -------  2984 
Wavelength Increment (Angstroms) --  .25 
Filter Wheel #1 Position ---------- (1) Ground quartz diffuser (ND=2.32)
Filter Wheel #2 Position ---------- (1) Neutral Density 0.494



************************************************************
HS scan start time = 02:27:17
Dark Count =  .6 


Time (GMT)  Wavelength (Ang)  Step Number  Raw Counts  Counts/Second

  147.90        2950.00           1211          39.00       167.39
  148.11        2950.25           1215          35.00       149.96
  148.14        2950.50           1218          46.00       197.91
  148.17        2950.75           1222          41.00       176.11
  148.20        2951.00           1225          33.00       141.24
  148.23        2951.25           1228          33.00       141.24
  148.26        2951.50           1232          36.00       154.32
  148.29        2951.75           1235          34.00       145.60
  148.32        2952.00           1238          34.00       145.60
  148.35        2952.25           1242          32.00       136.88
  148.38        2952.50           1245          33.00       141.24
  148.40        2952.75           1249          33.00       141.24
  148.44        2953.00           1252          39.00       167.39
  148.47        2953.25           1255          37.00       158.68
  148.49        2953.50           1259          37.00       158.68
  148.53        2953.75           1262          36.00       154.32
  148.55        2954.00           1265          33.00       141.24
  148.58        2954.25           1269          40.00       171.75
  148.61        2954.50           1272          34.00       145.60
  148.64        2954.75           1276          33.00       141.24
  148.67        2955.00           1279          40.00       171.75
  148.70        2955.25           1282          42.00       180.47
  148.73        2955.50           1286          40.00       171.75
  148.75        2955.75           1289          39.00       167.39
  148.79        2956.00           1293          36.00       154.32
  148.82        2956.25           1296          44.00       189.19
  148.84        2956.50           1299          35.00       149.96
  148.88        2956.75           1303          37.00       158.68
  148.90        2957.00           1306          41.00       176.11
  148.93        2957.25           1309          40.00       171.75
  148.96        2957.50           1313          40.00       171.75
  148.99        2957.75           1316          38.00       163.03
  149.02        2958.00           1320          42.00       180.47
  149.05        2958.25           1323          39.00       167.39
  149.08        2958.50           1326          42.00       180.47
  149.10        2958.75           1330          48.00       206.63
  149.14        2959.00           1333          45.00       193.55
  149.16        2959.25           1336          55.00       237.14
  149.19        2959.50           1340          65.00       280.73
  149.23        2959.75           1343          76.00       328.69
  149.25        2960.00           1347          92.00       398.44
  149.28        2960.25           1350         102.00       442.03
  149.31        2960.50           1353         134.00       581.53
  149.34        2960.75           1357         152.00       660.00
  149.37        2961.00           1360         174.00       755.90
  149.40        2961.25           1364         444.00      1932.99
  149.43        2961.50           1367        1436.00      6258.45
  149.45        2961.75           1370        3516.00     15331.85
  149.49        2962.00           1374        8656.00     37776.25
  149.51        2962.25           1377       13615.00     59460.90
  149.54        2962.50           1380       18179.00     79444.96
  149.58        2962.75           1384       24236.00    106005.90
  149.60        2963.00           1387       29518.00    129205.30
  149.63        2963.25           1391       35850.00    157062.00
  149.66        2963.50           1394       40428.00    177233.40
  149.69        2963.75           1397       45486.00    199550.10
  149.72        2964.00           1401       51920.00    227984.20
  149.75        2964.25           1404       56723.00    249244.20
  149.78        2964.50           1408       63477.00    279189.40
  149.81        2964.75           1411       67705.00    297964.50
  149.84        2965.00           1414       73159.00    322217.30
  149.87        2965.25           1418       78902.00    347796.10
  149.90        2965.50           1421       83928.00    370216.20
  149.93        2965.75           1424       88593.00    391054.90
  149.96        2966.00           1428       94696.00    418359.50
  149.98        2966.25           1431       98963.00    437478.50
  150.02        2966.50           1435      103073.00    455916.20
  150.05        2966.75           1438      104647.00    462983.10
  150.07        2967.00           1441      104760.00    463490.70
  150.11        2967.25           1445      104893.00    464087.90
  150.13        2967.50           1448      104512.00    462376.90
  150.16        2967.75           1452      102600.00    453793.20
  150.19        2968.00           1455      100090.00    442532.10
  150.22        2968.25           1458       95712.00    422909.70
  150.25        2968.50           1462       89494.00    395082.90
  150.28        2968.75           1465       84894.00    374529.10
  150.31        2969.00           1469       79219.00    349209.30
  150.33        2969.25           1472       74512.00    328239.60
  150.37        2969.50           1475       69757.00    307084.90
  150.40        2969.75           1479       63116.00    277587.40
  150.42        2970.00           1482       58462.00    256948.90
  150.46        2970.25           1485       53563.00    235253.50
  150.48        2970.50           1489       47112.00    206731.00
  150.51        2970.75           1492       42616.00    186883.20
  150.55        2971.00           1496       36267.00    158898.30
  150.57        2971.25           1499       31314.00    137101.50
  150.60        2971.50           1502       27158.00    118835.50
  150.63        2971.75           1506       20918.00     91450.32
  150.66        2972.00           1509       15802.00     69033.77
  150.69        2972.25           1513        9141.00     39895.72
  150.72        2972.50           1516        4995.00     21786.76
  150.75        2972.75           1519        1895.00      8260.25
  150.78        2973.00           1523         369.00      1606.01
  150.81        2973.25           1526         178.00       773.34
  150.84        2973.50           1530         185.00       803.86
  150.86        2973.75           1533         137.00       594.61
  150.90        2974.00           1536          79.00       341.76
  150.92        2974.25           1540          62.00       267.66
  150.95        2974.50           1543          60.00       258.94
  150.98        2974.75           1547          48.00       206.63
  151.01        2975.00           1550          48.00       206.63
  151.04        2975.25           1553          48.00       206.63
  151.07        2975.50           1557          41.00       176.11
  151.10        2975.75           1560          47.00       202.27
  151.12        2976.00           1564          45.00       193.55
  151.16        2976.25           1567          45.00       193.55
  151.19        2976.50           1570          47.00       202.27
  151.21        2976.75           1574          51.00       219.71
  151.25        2977.00           1577          48.00       206.63
  151.27        2977.25           1581          48.00       206.63
  151.30        2977.50           1584          47.00       202.27
  151.33        2977.75           1587          41.00       176.11
  151.36        2978.00           1591          43.00       184.83
  151.39        2978.25           1594          49.00       210.99
  151.42        2978.50           1598          43.00       184.83
  151.45        2978.75           1601          47.00       202.27
  151.47        2979.00           1604          45.00       193.55
  151.51        2979.25           1608          56.00       241.50
  151.54        2979.50           1611          40.00       171.75
  151.56        2979.75           1614          45.00       193.55
  151.60        2980.00           1618          42.00       180.47
  151.62        2980.25           1621          48.00       206.63
  151.65        2980.50           1625          46.00       197.91
  151.68        2980.75           1628          41.00       176.11
  151.71        2981.00           1631          47.00       202.27
  151.74        2981.25           1635          40.00       171.75
  151.77        2981.50           1638          39.00       167.39
  151.80        2981.75           1642          31.00       132.52
  151.82        2982.00           1645          41.00       176.11
  151.86        2982.25           1648          43.00       184.83
  151.88        2982.50           1652          47.00       202.27
  151.91        2982.75           1655          44.00       189.19
  151.95        2983.00           1659          42.00       180.47
  151.97        2983.25           1662          44.00       189.19
  152.00        2983.50           1666          46.00       197.91
  152.03        2983.75           1669          47.00       202.27
  152.06        2984.00           1672          41.00       176.11
HS scan finished at 02:32:26
end
************************************************************
  HS Scan of (1) Internal mercury lamp
************************************************************
Integration time is 0.2294 seconds per sample
dh180619El Arenosillo 37.1 6.73 3.07pr1000
************************************************************
Dead Time -------------------------  3.2E-08 
Number of Cycles Used -------------  4 
Starting Wavelength (Angstroms) ---  2950 
Final Wavelength (Angstoms) -------  2984 
Wavelength Increment (Angstroms) --  .25 
Filter Wheel #1 Position ---------- (1) Ground quartz diffuser (ND=2.32)
Filter Wheel #2 Position ---------- (1) Neutral Density 0.494



************************************************************
HS scan start time = 21:44:11
Dark Count =  8.100001 


Time (GMT)  Wavelength (Ang)  Step Number  Raw Counts  Counts/Second

 1304.81        2950.00           1211          40.00       139.06
 1305.02        2950.25           1215          40.00       139.06
 1305.05        2950.50           1218          47.00       169.57
 1305.08        2950.75           1222          37.00       125.98
 1305.11        2951.00           1225          41.00       143.42
 1305.13        2951.25           1228          44.00       156.50
 1305.16        2951.50           1232          42.00       147.78
 1305.19        2951.75           1235          42.00       147.78
 1305.22        2952.00           1238          37.00       125.98
 1305.24        2952.25           1242          44.00       156.50
 1305.27        2952.50           1245          42.00       147.78
 1305.30        2952.75           1249          38.00       130.34
 1305.33        2953.00           1252          41.00       143.42
 1305.36        2953.25           1255          39.00       134.70
 1305.38        2953.50           1259          36.00       121.62
 1305.41        2953.75           1262          40.00       139.06
 1305.44        2954.00           1265          39.00       134.70
 1305.47        2954.25           1269          47.00       169.57
 1305.50        2954.50           1272          40.00       139.06
 1305.52        2954.75           1276          40.00       139.06
 1305.55        2955.00           1279          45.00       160.86
 1305.58        2955.25           1282          37.00       125.98
 1305.61        2955.50           1286          41.00       143.42
 1305.64        2955.75           1289          40.00       139.06
 1305.66        2956.00           1293          36.00       121.62
 1305.69        2956.25           1296          33.00       108.54
 1305.72        2956.50           1299          43.00       152.14
 1305.75        2956.75           1303          36.00       121.62
 1305.78        2957.00           1306          42.00       147.78
 1305.80        2957.25           1309          43.00       152.14
 1305.83        2957.50           1313          45.00       160.86
 1305.86        2957.75           1316          42.00       147.78
 1305.89        2958.00           1320          39.00       134.70
 1305.92        2958.25           1323          47.00       169.57
 1305.94        2958.50           1326          49.00       178.29
 1305.97        2958.75           1330          49.00       178.29
 1306.00        2959.00           1333          50.00       182.65
 1306.03        2959.25           1336          57.00       213.17
 1306.05        2959.50           1340          63.00       239.32
 1306.08        2959.75           1343          73.00       282.91
 1306.11        2960.00           1347          86.00       339.59
 1306.14        2960.25           1350         100.00       400.62
 1306.17        2960.50           1353         107.00       431.13
 1306.19        2960.75           1357         154.00       636.02
 1306.22        2961.00           1360         164.00       679.61
 1306.25        2961.25           1364         455.00      1948.25
 1306.28        2961.50           1367        1365.00      5916.12
 1306.31        2961.75           1370        3453.00     15024.22
 1306.33        2962.00           1374        8113.00     35370.88
 1306.36        2962.25           1377       12635.00     55140.37
 1306.39        2962.50           1380       17447.00     76205.22
 1306.42        2962.75           1384       23728.00    103743.60
 1306.44        2963.00           1387       28288.00    123766.90
 1306.47        2963.25           1391       34955.00    153088.60
 1306.50        2963.50           1394       39705.00    174012.90
 1306.53        2963.75           1397       44235.00    193994.40
 1306.56        2964.00           1401       50282.00    220707.20
 1306.59        2964.25           1404       54652.00    240040.30
 1306.62        2964.50           1408       60628.00    266517.50
 1306.64        2964.75           1411       64783.00    284953.10
 1306.68        2965.00           1414       69628.00    306478.00
 1306.71        2965.25           1418       76094.00    335250.90
 1306.73        2965.50           1421       80417.00    354517.50
 1306.76        2965.75           1424       85448.00    376969.50
 1306.79        2966.00           1428       91441.00    403757.20
 1306.82        2966.25           1431       96204.00    425080.00
 1306.85        2966.50           1435      100002.00    442103.80
 1306.87        2966.75           1438      101062.00    446858.30
 1306.90        2967.00           1441      101283.00    447849.80
 1306.93        2967.25           1445      101305.00    447948.50
 1306.96        2967.50           1448      101225.00    447589.60
 1306.98        2967.75           1452       99147.00    438269.80
 1307.01        2968.00           1455       96227.00    425183.00
 1307.04        2968.25           1458       92555.00    408741.70
 1307.06        2968.50           1462       87313.00    385300.80
 1307.10        2968.75           1465       82744.00    364898.20
 1307.12        2969.00           1469       76980.00    339197.60
 1307.15        2969.25           1472       71820.00    316226.10
 1307.18        2969.50           1475       67411.00    296624.90
 1307.21        2969.75           1479       61032.00    268309.10
 1307.24        2970.00           1482       56190.00    246850.30
 1307.27        2970.25           1485       51731.00    227115.00
 1307.29        2970.50           1489       45593.00    199989.40
 1307.32        2970.75           1492       41058.00    179978.20
 1307.35        2971.00           1496       35558.00    155743.30
 1307.39        2971.25           1499       31035.00    135841.60
 1307.41        2971.50           1502       26287.00    114977.20
 1307.44        2971.75           1506       20503.00     89597.85
 1307.46        2972.00           1509       15893.00     69399.38
 1307.50        2972.25           1513        9779.00     42651.46
 1307.53        2972.50           1516        5494.00     23932.45
 1307.55        2972.75           1519        2141.00      9300.50
 1307.58        2973.00           1523         403.00      1721.54
 1307.60        2973.25           1526         173.00       718.85
 1307.64        2973.50           1530         136.00       557.55
 1307.67        2973.75           1533         118.00       479.08
 1307.69        2974.00           1536          84.00       330.87
 1307.72        2974.25           1540          65.00       248.04
 1307.74        2974.50           1543          61.00       230.60
 1307.78        2974.75           1547          60.00       226.24
 1307.81        2975.00           1550          55.00       204.45
 1307.83        2975.25           1553          50.00       182.65
 1307.86        2975.50           1557          49.00       178.29
 1307.88        2975.75           1560          48.00       173.93
 1307.92        2976.00           1564          49.00       178.29
 1307.94        2976.25           1567          53.00       195.73
 1307.97        2976.50           1570          46.00       165.21
 1308.00        2976.75           1574          57.00       213.17
 1308.03        2977.00           1577          51.00       187.01
 1308.05        2977.25           1581          47.00       169.57
 1308.08        2977.50           1584          52.00       191.37
 1308.11        2977.75           1587          51.00       187.01
 1308.13        2978.00           1591          45.00       160.86
 1308.16        2978.25           1594          53.00       195.73
 1308.19        2978.50           1598          47.00       169.57
 1308.22        2978.75           1601          55.00       204.45
 1308.24        2979.00           1604          54.00       200.09
 1308.27        2979.25           1608          49.00       178.29
 1308.30        2979.50           1611          49.00       178.29
 1308.32        2979.75           1614          49.00       178.29
 1308.35        2980.00           1618          46.00       165.21
 1308.38        2980.25           1621          45.00       160.86
 1308.40        2980.50           1625          49.00       178.29
 1308.44        2980.75           1628          48.00       173.93
 1308.46        2981.00           1631          47.00       169.57
 1308.49        2981.25           1635          45.00       160.86
 1308.52        2981.50           1638          42.00       147.78
 1308.54        2981.75           1642          45.00       160.86
 1308.58        2982.00           1645          43.00       152.14
 1308.60        2982.25           1648          41.00       143.42
 1308.63        2982.50           1652          44.00       156.50
 1308.66        2982.75           1655          52.00       191.37
 1308.68        2983.00           1659          46.00       165.21
 1308.71        2983.25           1662          45.00       160.86
 1308.74        2983.50           1666          42.00       147.78
 1308.77        2983.75           1669          52.00       191.37
 1308.79        2984.00           1672          44.00       156.50
HS scan finished at 21:49:10
end
