************************************************************
  HS Scan of (1) Internal mercury lamp
************************************************************
Integration time is 0.2294 seconds per sample
dh090619El Arenosillo 37.1 6.73 2.92pr1000
************************************************************
Dead Time -------------------------  3.2E-08 
Number of Cycles Used -------------  4 
Starting Wavelength (Angstroms) ---  2950 
Final Wavelength (Angstoms) -------  2984 
Wavelength Increment (Angstroms) --  .25 
Filter Wheel #1 Position ---------- (1) Ground quartz diffuser (ND=2.32)
Filter Wheel #2 Position ---------- (1) Neutral Density 0.494



************************************************************
HS scan start time = 01:24:03
Dark Count =  .6 


Time (GMT)  Wavelength (Ang)  Step Number  Raw Counts  Counts/Second

   84.67        2950.00           1211          38.00       163.03
   84.89        2950.25           1215          42.00       180.47
   84.92        2950.50           1218          35.00       149.96
   84.94        2950.75           1222          44.00       189.19
   84.97        2951.00           1225          37.00       158.68
   85.00        2951.25           1228          33.00       141.24
   85.03        2951.50           1232          39.00       167.39
   85.06        2951.75           1235          40.00       171.75
   85.09        2952.00           1238          37.00       158.68
   85.12        2952.25           1242          36.00       154.32
   85.14        2952.50           1245          45.00       193.55
   85.17        2952.75           1249          33.00       141.24
   85.21        2953.00           1252          36.00       154.32
   85.23        2953.25           1255          40.00       171.75
   85.26        2953.50           1259          45.00       193.55
   85.29        2953.75           1262          44.00       189.19
   85.32        2954.00           1265          37.00       158.68
   85.35        2954.25           1269          38.00       163.03
   85.37        2954.50           1272          35.00       149.96
   85.41        2954.75           1276          44.00       189.19
   85.43        2955.00           1279          37.00       158.68
   85.46        2955.25           1282          40.00       171.75
   85.49        2955.50           1286          38.00       163.03
   85.52        2955.75           1289          43.00       184.83
   85.55        2956.00           1293          34.00       145.60
   85.58        2956.25           1296          42.00       180.47
   85.61        2956.50           1299          35.00       149.96
   85.64        2956.75           1303          35.00       149.96
   85.66        2957.00           1306          41.00       176.11
   85.69        2957.25           1309          32.00       136.88
   85.72        2957.50           1313          36.00       154.32
   85.75        2957.75           1316          45.00       193.55
   85.78        2958.00           1320          36.00       154.32
   85.80        2958.25           1323          39.00       167.39
   85.84        2958.50           1326          48.00       206.63
   85.87        2958.75           1330          43.00       184.83
   85.89        2959.00           1333          49.00       210.99
   85.92        2959.25           1336          58.00       250.22
   85.95        2959.50           1340          65.00       280.73
   85.98        2959.75           1343          83.00       359.20
   86.01        2960.00           1347         104.00       450.75
   86.03        2960.25           1350         107.00       463.83
   86.07        2960.50           1353         147.00       638.20
   86.09        2960.75           1357         158.00       686.15
   86.12        2961.00           1360         181.00       786.42
   86.15        2961.25           1364         410.00      1784.76
   86.18        2961.50           1367        1189.00      5181.33
   86.21        2961.75           1370        3243.00     14140.66
   86.23        2962.00           1374        8563.00     37369.86
   86.27        2962.25           1377       13208.00     57680.04
   86.29        2962.50           1380       18409.00     80452.72
   86.32        2962.75           1384       25655.00    112235.00
   86.35        2963.00           1387       30919.00    135364.50
   86.38        2963.25           1391       37191.00    162968.00
   86.41        2963.50           1394       42805.00    187717.10
   86.43        2963.75           1397       47864.00    210053.20
   86.47        2964.00           1401       54548.00    239613.20
   86.50        2964.25           1404       59955.00    263566.70
   86.52        2964.50           1408       66747.00    293708.30
   86.55        2964.75           1411       71738.00    315894.70
   86.59        2965.00           1414       76886.00    338812.30
   86.61        2965.25           1418       84692.00    373627.10
   86.64        2965.50           1421       89606.00    395583.70
   86.67        2965.75           1424       94698.00    418368.40
   86.70        2966.00           1428      101244.00    447708.50
   86.73        2966.25           1431      105912.00    468665.00
   86.75        2966.50           1435      110582.00    489659.00
   86.78        2966.75           1438      112555.00    498537.10
   86.82        2967.00           1441      113059.00    500805.80
   86.84        2967.25           1445      113561.00    503065.90
   86.87        2967.50           1448      113799.00    504137.50
   86.90        2967.75           1452      112535.00    498447.10
   86.93        2968.00           1455      110156.00    487742.70
   86.96        2968.25           1458      106071.00    469379.30
   86.98        2968.50           1462       99187.00    438482.80
   87.02        2968.75           1465       94545.00    417683.30
   87.04        2969.00           1469       87259.00    385093.00
   87.07        2969.25           1472       82364.00    363236.00
   87.10        2969.50           1475       77204.00    340229.00
   87.13        2969.75           1479       70119.00    308694.30
   87.16        2970.00           1482       65231.00    286975.50
   87.18        2970.25           1485       60531.00    266120.60
   87.21        2970.50           1489       53660.00    235682.70
   87.24        2970.75           1492       48144.00    211290.40
   87.27        2971.00           1496       41382.00    181440.10
   87.30        2971.25           1499       36100.00    158162.90
   87.33        2971.50           1502       30719.00    134485.10
   87.36        2971.75           1506       23931.00    104667.30
   87.38        2972.00           1509       18739.00     81898.75
   87.41        2972.25           1513       12060.00     52657.97
   87.44        2972.50           1516        7407.00     32319.37
   87.47        2972.75           1519        3616.00     15768.20
   87.50        2973.00           1523         674.00      2935.76
   87.52        2973.25           1526         251.00      1091.58
   87.56        2973.50           1530         153.00       664.36
   87.58        2973.75           1533         130.00       564.09
   87.61        2974.00           1536         109.00       472.54
   87.64        2974.25           1540          67.00       289.45
   87.67        2974.50           1543          59.00       254.58
   87.70        2974.75           1547          55.00       237.14
   87.72        2975.00           1550          52.00       224.06
   87.76        2975.25           1553          49.00       210.99
   87.79        2975.50           1557          48.00       206.63
   87.81        2975.75           1560          52.00       224.06
   87.84        2976.00           1564          45.00       193.55
   87.87        2976.25           1567          43.00       184.83
   87.90        2976.50           1570          45.00       193.55
   87.93        2976.75           1574          51.00       219.71
   87.95        2977.00           1577          46.00       197.91
   87.99        2977.25           1581          52.00       224.06
   88.01        2977.50           1584          53.00       228.42
   88.04        2977.75           1587          47.00       202.27
   88.07        2978.00           1591          43.00       184.83
   88.10        2978.25           1594          48.00       206.63
   88.13        2978.50           1598          48.00       206.63
   88.15        2978.75           1601          47.00       202.27
   88.19        2979.00           1604          41.00       176.11
   88.21        2979.25           1608          54.00       232.78
   88.24        2979.50           1611          43.00       184.83
   88.27        2979.75           1614          49.00       210.99
   88.30        2980.00           1618          41.00       176.11
   88.33        2980.25           1621          42.00       180.47
   88.36        2980.50           1625          43.00       184.83
   88.39        2980.75           1628          47.00       202.27
   88.42        2981.00           1631          44.00       189.19
   88.44        2981.25           1635          41.00       176.11
   88.47        2981.50           1638          48.00       206.63
   88.50        2981.75           1642          48.00       206.63
   88.53        2982.00           1645          48.00       206.63
   88.56        2982.25           1648          43.00       184.83
   88.58        2982.50           1652          41.00       176.11
   88.62        2982.75           1655          51.00       219.71
   88.64        2983.00           1659          45.00       193.55
   88.67        2983.25           1662          45.00       193.55
   88.70        2983.50           1666          46.00       197.91
   88.73        2983.75           1669          49.00       210.99
   88.76        2984.00           1672          46.00       197.91
HS scan finished at 01:29:08
end
