************************************************************
  HS Scan of (1) Internal mercury lamp
************************************************************
Integration time is 0.2294 seconds per sample
dh100617El Arenosillo 37.1 6.73 3.09pr1000
************************************************************
Dead Time -------------------------  3.2E-08 
Number of Cycles Used -------------  4 
Starting Wavelength (Angstroms) ---  2950 
Final Wavelength (Angstoms) -------  2984 
Wavelength Increment (Angstroms) --  .25 
Filter Wheel #1 Position ---------- (1) Ground quartz diffuser (ND=2.32)
Filter Wheel #2 Position ---------- (1) Neutral Density 0.494



************************************************************
HS scan start time = 02:08:29
Dark Count =  .8 


Time (GMT)  Wavelength (Ang)  Step Number  Raw Counts  Counts/Second

  129.11        2950.00           1211         125.00       541.42
  129.32        2950.25           1215         120.00       519.63
  129.35        2950.50           1218         128.00       554.50
  129.38        2950.75           1222         105.00       454.24
  129.41        2951.00           1225         107.00       462.95
  129.43        2951.25           1228         125.00       541.42
  129.47        2951.50           1232         107.00       462.95
  129.50        2951.75           1235         125.00       541.42
  129.52        2952.00           1238         112.00       484.75
  129.56        2952.25           1242         151.00       654.77
  129.58        2952.50           1245         108.00       467.31
  129.61        2952.75           1249         109.00       471.67
  129.64        2953.00           1252         131.00       567.58
  129.67        2953.25           1255         106.00       458.59
  129.70        2953.50           1259         124.00       537.06
  129.73        2953.75           1262         109.00       471.67
  129.76        2954.00           1265         119.00       515.27
  129.78        2954.25           1269         103.00       445.52
  129.82        2954.50           1272         113.00       489.11
  129.84        2954.75           1276         109.00       471.67
  129.87        2955.00           1279         142.00       615.53
  129.91        2955.25           1282         110.00       476.03
  129.93        2955.50           1286         133.00       576.30
  129.96        2955.75           1289         110.00       476.03
  129.99        2956.00           1293         131.00       567.58
  130.02        2956.25           1296         130.00       563.22
  130.05        2956.50           1299         103.00       445.52
  130.08        2956.75           1303         128.00       554.50
  130.11        2957.00           1306         127.00       550.14
  130.13        2957.25           1309         108.00       467.31
  130.17        2957.50           1313         101.00       436.80
  130.20        2957.75           1316         124.00       537.06
  130.22        2958.00           1320         134.00       580.66
  130.26        2958.25           1323         122.00       528.34
  130.28        2958.50           1326         118.00       510.91
  130.31        2958.75           1330         123.00       532.70
  130.34        2959.00           1333         124.00       537.06
  130.37        2959.25           1336         144.00       624.25
  130.40        2959.50           1340         144.00       624.25
  130.43        2959.75           1343         186.00       807.34
  130.46        2960.00           1347         222.00       964.28
  130.48        2960.25           1350         255.00      1108.15
  130.52        2960.50           1353         342.00      1487.43
  130.54        2960.75           1357         425.00      1849.28
  130.57        2961.00           1360         615.00      2677.65
  130.61        2961.25           1364        1708.00      7443.80
  130.63        2961.50           1367        4783.00     20860.48
  130.66        2961.75           1370       13234.00     57792.92
  130.69        2962.00           1374       29394.00    128659.40
  130.72        2962.25           1377       42790.00    187650.00
  130.75        2962.50           1380       56078.00    246386.60
  130.78        2962.75           1384       72914.00    321126.10
  130.81        2963.00           1387       85460.00    377055.70
  130.83        2963.25           1391      102222.00    452095.90
  130.87        2963.50           1394      114261.00    506217.00
  130.89        2963.75           1397      127048.00    563908.50
  130.92        2964.00           1401      144536.00    643159.30
  130.96        2964.25           1404      156913.00    699494.80
  130.98        2964.50           1408      175172.00    782980.10
  131.01        2964.75           1411      188669.00    844983.90
  131.05        2965.00           1414      200844.00    901129.20
  131.07        2965.25           1418      217690.00    979154.40
  131.10        2965.50           1421      229895.00   1035932.00
  131.14        2965.75           1424      242648.00   1095485.00
  131.16        2966.00           1428      257522.00   1165235.00
  131.19        2966.25           1431      268240.00   1215693.00
  131.22        2966.50           1435      277760.00   1260651.00
  131.25        2966.75           1438      280970.00   1275840.00
  131.28        2967.00           1441      281203.00   1276943.00
  131.31        2967.25           1445      280773.00   1274907.00
  131.34        2967.50           1448      280572.00   1273956.00
  131.36        2967.75           1452      275244.00   1248756.00
  131.40        2968.00           1455      265856.00   1204455.00
  131.42        2968.25           1458      254339.00   1150282.00
  131.45        2968.50           1462      238669.00   1076879.00
  131.49        2968.75           1465      226157.00   1018521.00
  131.51        2969.00           1469      209713.00    942158.30
  131.54        2969.25           1472      197624.00    886260.20
  131.57        2969.50           1475      184997.00    828090.30
  131.60        2969.75           1479      167942.00    749868.50
  131.63        2970.00           1482      154698.00    689397.80
  131.66        2970.25           1485      142723.00    634924.30
  131.69        2970.50           1489      125707.00    557848.10
  131.72        2970.75           1492      112792.00    499603.00
  131.75        2971.00           1496       95408.00    421547.20
  131.78        2971.25           1499       82514.00    363904.50
  131.81        2971.50           1502       69020.00    303807.60
  131.84        2971.75           1506       53117.00    233279.00
  131.87        2972.00           1509       40537.00    177713.10
  131.89        2972.25           1513       23156.00    101265.70
  131.93        2972.50           1516       11392.00     49735.59
  131.96        2972.75           1519        3967.00     17299.03
  131.98        2973.00           1523         916.00      3990.05
  132.02        2973.25           1526         572.00      2490.17
  132.04        2973.50           1530         430.00      1871.08
  132.07        2973.75           1533         331.00      1439.47
  132.10        2974.00           1536         280.00      1217.14
  132.13        2974.25           1540         228.00       990.44
  132.16        2974.50           1543         182.00       789.91
  132.19        2974.75           1547         161.00       698.36
  132.22        2975.00           1550         147.00       637.33
  132.24        2975.25           1553         153.00       663.48
  132.28        2975.50           1557         146.00       632.97
  132.31        2975.75           1560         154.00       667.84
  132.33        2976.00           1564         139.00       602.45
  132.37        2976.25           1567         135.00       585.02
  132.39        2976.50           1570         124.00       537.06
  132.42        2976.75           1574         165.00       715.80
  132.45        2977.00           1577         163.00       707.08
  132.48        2977.25           1581         138.00       598.09
  132.51        2977.50           1584         142.00       615.53
  132.54        2977.75           1587         131.00       567.58
  132.57        2978.00           1591         139.00       602.45
  132.59        2978.25           1594         125.00       541.42
  132.63        2978.50           1598         136.00       589.37
  132.66        2978.75           1601         139.00       602.45
  132.68        2979.00           1604         144.00       624.25
  132.72        2979.25           1608         170.00       737.59
  132.74        2979.50           1611         125.00       541.42
  132.77        2979.75           1614         149.00       646.05
  132.80        2980.00           1618         141.00       611.17
  132.83        2980.25           1621         193.00       837.86
  132.86        2980.50           1625         147.00       637.33
  132.89        2980.75           1628         127.00       550.14
  132.92        2981.00           1631         130.00       563.22
  132.94        2981.25           1635         135.00       585.02
  132.98        2981.50           1638         130.00       563.22
  133.00        2981.75           1642         133.00       576.30
  133.03        2982.00           1645         138.00       598.09
  133.07        2982.25           1648         139.00       602.45
  133.09        2982.50           1652         141.00       611.17
  133.12        2982.75           1655         134.00       580.66
  133.15        2983.00           1659         129.00       558.86
  133.18        2983.25           1662         125.00       541.42
  133.21        2983.50           1666         172.00       746.31
  133.24        2983.75           1669         137.00       593.73
  133.27        2984.00           1672         148.00       641.69
HS scan finished at 02:13:38
end
************************************************************
  HS Scan of (1) Internal mercury lamp
************************************************************
Integration time is 0.2294 seconds per sample
dh100617El Arenosillo 37.1 6.73 3.31pr1000
************************************************************
Dead Time -------------------------  3.2E-08 
Number of Cycles Used -------------  4 
Starting Wavelength (Angstroms) ---  2950 
Final Wavelength (Angstoms) -------  2984 
Wavelength Increment (Angstroms) --  .25 
Filter Wheel #1 Position ---------- (1) Ground quartz diffuser (ND=2.32)
Filter Wheel #2 Position ---------- (1) Neutral Density 0.494



************************************************************
HS scan start time = 20:43:14
Dark Count =  1.7 


Time (GMT)  Wavelength (Ang)  Step Number  Raw Counts  Counts/Second

 1243.87        2950.00           1211          97.00       415.44
 1244.08        2950.25           1215          93.00       398.00
 1244.11        2950.50           1218          96.00       411.08
 1244.14        2950.75           1222         105.00       450.31
 1244.17        2951.00           1225          94.00       402.36
 1244.19        2951.25           1228          95.00       406.72
 1244.23        2951.50           1232          92.00       393.64
 1244.25        2951.75           1235          90.00       384.92
 1244.28        2952.00           1238         116.00       498.26
 1244.31        2952.25           1242         103.00       441.59
 1244.34        2952.50           1245         127.00       546.22
 1244.37        2952.75           1249          95.00       406.72
 1244.40        2953.00           1252          98.00       419.80
 1244.43        2953.25           1255         117.00       502.62
 1244.46        2953.50           1259          93.00       398.00
 1244.49        2953.75           1262          97.00       415.44
 1244.52        2954.00           1265          93.00       398.00
 1244.54        2954.25           1269          97.00       415.44
 1244.58        2954.50           1272          94.00       402.36
 1244.61        2954.75           1276          98.00       419.80
 1244.63        2955.00           1279          97.00       415.44
 1244.67        2955.25           1282          98.00       419.80
 1244.69        2955.50           1286          97.00       415.44
 1244.72        2955.75           1289         101.00       432.87
 1244.75        2956.00           1293         124.00       533.14
 1244.78        2956.25           1296         100.00       428.52
 1244.81        2956.50           1299          93.00       398.00
 1244.84        2956.75           1303         105.00       450.31
 1244.87        2957.00           1306          95.00       406.72
 1244.89        2957.25           1309         102.00       437.23
 1244.93        2957.50           1313         110.00       472.11
 1244.95        2957.75           1316         105.00       450.31
 1244.98        2958.00           1320         116.00       498.26
 1245.02        2958.25           1323         146.00       629.05
 1245.04        2958.50           1326         116.00       498.26
 1245.07        2958.75           1330         101.00       432.87
 1245.11        2959.00           1333         110.00       472.11
 1245.13        2959.25           1336         115.00       493.90
 1245.16        2959.50           1340         174.00       751.11
 1245.19        2959.75           1343         178.00       768.55
 1245.22        2960.00           1347         217.00       938.56
 1245.25        2960.25           1350         255.00      1104.22
 1245.28        2960.50           1353         324.00      1405.03
 1245.31        2960.75           1357         435.00      1888.95
 1245.33        2961.00           1360         556.00      2416.49
 1245.37        2961.25           1364        1318.00      5739.07
 1245.39        2961.50           1367        3693.00     16099.40
 1245.42        2961.75           1370       10483.00     45757.01
 1245.45        2962.00           1374       26033.00    113889.90
 1245.48        2962.25           1377       38214.00    167470.10
 1245.51        2962.50           1380       50925.00    223578.70
 1245.54        2962.75           1384       68256.00    300408.00
 1245.57        2963.00           1387       80694.00    355781.30
 1245.60        2963.25           1391       97025.00    428787.10
 1245.63        2963.50           1394      111139.00    492159.90
 1245.66        2963.75           1397      122820.00    544805.00
 1245.68        2964.00           1401      140760.00    626008.90
 1245.72        2964.25           1404      154180.00    687033.40
 1245.75        2964.50           1408      172325.00    769928.90
 1245.77        2964.75           1411      185203.00    829033.50
 1245.81        2965.00           1414      198410.00    889884.20
 1245.84        2965.25           1418      217113.00    976471.20
 1245.86        2965.50           1421      230174.00   1037229.00
 1245.90        2965.75           1424      242327.00   1093979.00
 1245.93        2966.00           1428      258517.00   1169908.00
 1245.95        2966.25           1431      270413.00   1225939.00
 1245.99        2966.50           1435      279615.00   1269422.00
 1246.01        2966.75           1438      282210.00   1281707.00
 1246.04        2967.00           1441      282664.00   1283858.00
 1246.07        2967.25           1445      283372.00   1287211.00
 1246.10        2967.50           1448      282404.00   1282626.00
 1246.13        2967.75           1452      278838.00   1265746.00
 1246.16        2968.00           1455      270362.00   1225698.00
 1246.19        2968.25           1458      259127.00   1172776.00
 1246.21        2968.50           1462      242698.00   1095714.00
 1246.25        2968.75           1465      230808.00   1040184.00
 1246.27        2969.00           1469      213120.00    957944.40
 1246.30        2969.25           1472      202767.00    910011.80
 1246.34        2969.50           1475      190959.00    855524.60
 1246.36        2969.75           1479      175100.00    782645.80
 1246.39        2970.00           1482      163342.00    728834.40
 1246.43        2970.25           1485      150803.00    671654.50
 1246.45        2970.50           1489      132999.00    590827.10
 1246.48        2970.75           1492      119991.00    532038.50
 1246.51        2971.00           1496      101916.00    450718.70
 1246.54        2971.25           1499       89326.00    394326.90
 1246.57        2971.50           1502       76046.00    335065.60
 1246.60        2971.75           1506       58292.00    256190.70
 1246.63        2972.00           1509       45291.00    198684.30
 1246.66        2972.25           1513       29579.00    129468.60
 1246.69        2972.50           1516       16950.00     74056.29
 1246.72        2972.75           1519        7355.00     32087.42
 1246.74        2973.00           1523        1576.00      6864.19
 1246.78        2973.25           1526         716.00      3114.09
 1246.81        2973.50           1530         469.00      2037.19
 1246.83        2973.75           1533         374.00      1623.01
 1246.87        2974.00           1536         280.00      1213.21
 1246.89        2974.25           1540         232.00      1003.96
 1246.92        2974.50           1543         177.00       764.19
 1246.95        2974.75           1547         168.00       724.95
 1246.98        2975.00           1550         146.00       629.05
 1247.01        2975.25           1553         157.00       677.00
 1247.04        2975.50           1557         134.00       576.73
 1247.07        2975.75           1560         153.00       659.56
 1247.09        2976.00           1564         160.00       690.08
 1247.13        2976.25           1567         122.00       524.42
 1247.15        2976.50           1570         169.00       729.31
 1247.18        2976.75           1574         140.00       602.89
 1247.22        2977.00           1577         150.00       646.48
 1247.24        2977.25           1581         139.00       598.53
 1247.27        2977.50           1584         121.00       520.06
 1247.30        2977.75           1587         156.00       672.64
 1247.33        2978.00           1591         125.00       537.50
 1247.36        2978.25           1594         133.00       572.37
 1247.39        2978.50           1598         154.00       663.92
 1247.42        2978.75           1601         119.00       511.34
 1247.44        2979.00           1604         151.00       650.84
 1247.48        2979.25           1608         125.00       537.50
 1247.50        2979.50           1611         116.00       498.26
 1247.53        2979.75           1614         153.00       659.56
 1247.57        2980.00           1618         121.00       520.06
 1247.59        2980.25           1621         135.00       581.09
 1247.62        2980.50           1625         124.00       533.14
 1247.65        2980.75           1628         122.00       524.42
 1247.68        2981.00           1631         127.00       546.22
 1247.71        2981.25           1635         158.00       681.36
 1247.74        2981.50           1638         128.00       550.58
 1247.77        2981.75           1642         131.00       563.65
 1247.79        2982.00           1645         115.00       493.90
 1247.83        2982.25           1648         120.00       515.70
 1247.85        2982.50           1652         116.00       498.26
 1247.88        2982.75           1655         138.00       594.17
 1247.91        2983.00           1659         149.00       642.12
 1247.94        2983.25           1662         108.00       463.39
 1247.97        2983.50           1666         166.00       716.23
 1248.00        2983.75           1669         115.00       493.90
 1248.03        2984.00           1672         129.00       554.94
HS scan finished at 20:48:24
end
