************************************************************
  HS Scan of (1) Internal mercury lamp
************************************************************
Integration time is 0.2294 seconds per sample
dh150619El Arenosillo 37.1 6.73 2.82pr1000
************************************************************
Dead Time -------------------------  3.2E-08 
Number of Cycles Used -------------  4 
Starting Wavelength (Angstroms) ---  2950 
Final Wavelength (Angstoms) -------  2984 
Wavelength Increment (Angstroms) --  .25 
Filter Wheel #1 Position ---------- (1) Ground quartz diffuser (ND=2.32)
Filter Wheel #2 Position ---------- (1) Neutral Density 0.494



************************************************************
HS scan start time = 02:21:20
Dark Count =  .3 


Time (GMT)  Wavelength (Ang)  Step Number  Raw Counts  Counts/Second

  141.95        2950.00           1211          36.00       155.62
  142.16        2950.25           1215          41.00       177.42
  142.19        2950.50           1218          44.00       190.50
  142.22        2950.75           1222          39.00       168.70
  142.25        2951.00           1225          41.00       177.42
  142.28        2951.25           1228          38.00       164.34
  142.31        2951.50           1232          37.00       159.98
  142.34        2951.75           1235          43.00       186.14
  142.37        2952.00           1238          44.00       190.50
  142.39        2952.25           1242          45.00       194.86
  142.43        2952.50           1245          33.00       142.55
  142.45        2952.75           1249          38.00       164.34
  142.48        2953.00           1252          44.00       190.50
  142.51        2953.25           1255          39.00       168.70
  142.54        2953.50           1259          42.00       181.78
  142.57        2953.75           1262          39.00       168.70
  142.59        2954.00           1265          36.00       155.62
  142.63        2954.25           1269          35.00       151.26
  142.65        2954.50           1272          36.00       155.62
  142.68        2954.75           1276          39.00       168.70
  142.72        2955.00           1279          37.00       159.98
  142.74        2955.25           1282          40.00       173.06
  142.77        2955.50           1286          41.00       177.42
  142.80        2955.75           1289          43.00       186.14
  142.83        2956.00           1293          40.00       173.06
  142.86        2956.25           1296          36.00       155.62
  142.89        2956.50           1299          31.00       133.83
  142.92        2956.75           1303          36.00       155.62
  142.94        2957.00           1306          37.00       159.98
  142.97        2957.25           1309          38.00       164.34
  143.00        2957.50           1313          39.00       168.70
  143.03        2957.75           1316          37.00       159.98
  143.06        2958.00           1320          42.00       181.78
  143.09        2958.25           1323          41.00       177.42
  143.12        2958.50           1326          44.00       190.50
  143.14        2958.75           1330          48.00       207.94
  143.18        2959.00           1333          40.00       173.06
  143.21        2959.25           1336          53.00       229.73
  143.23        2959.50           1340          63.00       273.32
  143.26        2959.75           1343          69.00       299.48
  143.28        2960.00           1347          87.00       377.95
  143.31        2960.25           1350         159.00       691.82
  143.34        2960.50           1353         141.00       613.35
  143.37        2960.75           1357         153.00       665.66
  143.40        2961.00           1360         265.00      1153.92
  143.43        2961.25           1364         964.00      4201.52
  143.46        2961.50           1367        2581.00     11253.83
  143.49        2961.75           1370        5740.00     25040.55
  143.52        2962.00           1374       11560.00     50472.48
  143.55        2962.25           1377       16497.00     72078.44
  143.58        2962.50           1380       21143.00     92438.24
  143.60        2962.75           1384       27080.00    118494.20
  143.63        2963.00           1387       31985.00    140053.90
  143.66        2963.25           1391       38404.00    168313.40
  143.69        2963.50           1394       43487.00    190727.70
  143.72        2963.75           1397       48530.00    212997.40
  143.75        2964.00           1401       55261.00    242771.00
  143.78        2964.25           1404       60831.00    267452.30
  143.81        2964.50           1408       67590.00    297454.80
  143.84        2964.75           1411       72522.00    319384.10
  143.87        2965.00           1414       77974.00    343661.40
  143.90        2965.25           1418       84658.00    373476.60
  143.93        2965.50           1421       89320.00    394306.30
  143.96        2965.75           1424       93951.00    415025.20
  143.99        2966.00           1428       99939.00    441856.20
  144.02        2966.25           1431      103364.00    457223.90
  144.05        2966.50           1435      106779.00    472561.80
  144.07        2966.75           1438      106940.00    473285.30
  144.10        2967.00           1441      107352.00    475136.90
  144.14        2967.25           1445      106952.00    473339.20
  144.16        2967.50           1448      106824.00    472764.10
  144.19        2967.75           1452      104163.00    460811.20
  144.22        2968.00           1455      100766.00    445565.50
  144.25        2968.25           1458       96048.00    424416.10
  144.28        2968.50           1462       90455.00    399381.70
  144.31        2968.75           1465       85724.00    378237.00
  144.34        2969.00           1469       79823.00    351903.50
  144.36        2969.25           1472       74851.00    329750.30
  144.40        2969.50           1475       70624.00    310941.30
  144.43        2969.75           1479       63731.00    280318.00
  144.45        2970.00           1482       58942.00    259077.50
  144.48        2970.25           1485       54146.00    237835.10
  144.52        2970.50           1489       47532.00    208587.80
  144.54        2970.75           1492       42443.00    186121.40
  144.57        2971.00           1496       35787.00    156786.00
  144.61        2971.25           1499       30945.00    135480.20
  144.63        2971.50           1502       25771.00    112745.60
  144.66        2971.75           1506       19551.00     85458.75
  144.69        2972.00           1509       14957.00     65335.68
  144.72        2972.25           1513        8657.00     37781.92
  144.75        2972.50           1516        4561.00     19893.66
  144.78        2972.75           1519        1730.00      7541.93
  144.81        2973.00           1523         380.00      1655.28
  144.83        2973.25           1526         181.00       787.73
  144.86        2973.50           1530         137.00       595.91
  144.89        2973.75           1533         114.00       495.65
  144.91        2974.00           1536          93.00       404.10
  144.94        2974.25           1540          72.00       312.56
  144.97        2974.50           1543          60.00       260.25
  145.00        2974.75           1547          52.00       225.37
  145.02        2975.00           1550          48.00       207.94
  145.06        2975.25           1553          52.00       225.37
  145.09        2975.50           1557          56.00       242.81
  145.11        2975.75           1560          45.00       194.86
  145.15        2976.00           1564          41.00       177.42
  145.17        2976.25           1567          50.00       216.65
  145.20        2976.50           1570          49.00       212.29
  145.23        2976.75           1574          47.00       203.58
  145.26        2977.00           1577          48.00       207.94
  145.29        2977.25           1581          50.00       216.65
  145.31        2977.50           1584          48.00       207.94
  145.35        2977.75           1587          46.00       199.22
  145.37        2978.00           1591          48.00       207.94
  145.40        2978.25           1594          51.00       221.01
  145.43        2978.50           1598          48.00       207.94
  145.46        2978.75           1601          45.00       194.86
  145.49        2979.00           1604          45.00       194.86
  145.52        2979.25           1608          46.00       199.22
  145.55        2979.50           1611          47.00       203.58
  145.58        2979.75           1614          41.00       177.42
  145.61        2980.00           1618          41.00       177.42
  145.64        2980.25           1621          46.00       199.22
  145.66        2980.50           1625          42.00       181.78
  145.69        2980.75           1628          46.00       199.22
  145.72        2981.00           1631          45.00       194.86
  145.75        2981.25           1635          47.00       203.58
  145.78        2981.50           1638          45.00       194.86
  145.81        2981.75           1642          41.00       177.42
  145.84        2982.00           1645          44.00       190.50
  145.86        2982.25           1648          43.00       186.14
  145.90        2982.50           1652          46.00       199.22
  145.93        2982.75           1655          45.00       194.86
  145.95        2983.00           1659          47.00       203.58
  145.99        2983.25           1662          42.00       181.78
  146.01        2983.50           1666          44.00       190.50
  146.04        2983.75           1669          46.00       199.22
  146.07        2984.00           1672          46.00       199.22
HS scan finished at 02:26:26
end
************************************************************
  HS Scan of (1) Internal mercury lamp
************************************************************
Integration time is 0.2294 seconds per sample
dh150619El Arenosillo 37.1 6.73 2.96pr1000
************************************************************
Dead Time -------------------------  3.2E-08 
Number of Cycles Used -------------  4 
Starting Wavelength (Angstroms) ---  2950 
Final Wavelength (Angstoms) -------  2984 
Wavelength Increment (Angstroms) --  .25 
Filter Wheel #1 Position ---------- (1) Ground quartz diffuser (ND=2.32)
Filter Wheel #2 Position ---------- (1) Neutral Density 0.494



************************************************************
HS scan start time = 21:44:25
Dark Count =  .7 


Time (GMT)  Wavelength (Ang)  Step Number  Raw Counts  Counts/Second

 1305.05        2950.00           1211          43.00       184.40
 1305.26        2950.25           1215          35.00       149.52
 1305.29        2950.50           1218          34.00       145.16
 1305.32        2950.75           1222          33.00       140.80
 1305.35        2951.00           1225          40.00       171.32
 1305.38        2951.25           1228          40.00       171.32
 1305.41        2951.50           1232          42.00       180.04
 1305.44        2951.75           1235          36.00       153.88
 1305.47        2952.00           1238          39.00       166.96
 1305.49        2952.25           1242          36.00       153.88
 1305.52        2952.50           1245          35.00       149.52
 1305.55        2952.75           1249          35.00       149.52
 1305.58        2953.00           1252          37.00       158.24
 1305.61        2953.25           1255          37.00       158.24
 1305.64        2953.50           1259          36.00       153.88
 1305.67        2953.75           1262          36.00       153.88
 1305.69        2954.00           1265          39.00       166.96
 1305.73        2954.25           1269          35.00       149.52
 1305.76        2954.50           1272          38.00       162.60
 1305.78        2954.75           1276          38.00       162.60
 1305.82        2955.00           1279          38.00       162.60
 1305.84        2955.25           1282          36.00       153.88
 1305.87        2955.50           1286          39.00       166.96
 1305.90        2955.75           1289          36.00       153.88
 1305.93        2956.00           1293          32.00       136.44
 1305.96        2956.25           1296          38.00       162.60
 1305.99        2956.50           1299          39.00       166.96
 1306.02        2956.75           1303          36.00       153.88
 1306.04        2957.00           1306          35.00       149.52
 1306.07        2957.25           1309          35.00       149.52
 1306.10        2957.50           1313          35.00       149.52
 1306.13        2957.75           1316          34.00       145.16
 1306.16        2958.00           1320          39.00       166.96
 1306.19        2958.25           1323          38.00       162.60
 1306.22        2958.50           1326          33.00       140.80
 1306.24        2958.75           1330          45.00       193.11
 1306.28        2959.00           1333          41.00       175.68
 1306.31        2959.25           1336          49.00       210.55
 1306.33        2959.50           1340          57.00       245.42
 1306.36        2959.75           1343          68.00       293.38
 1306.39        2960.00           1347          82.00       354.41
 1306.42        2960.25           1350         119.00       515.70
 1306.45        2960.50           1353         147.00       637.76
 1306.48        2960.75           1357         154.00       668.28
 1306.51        2961.00           1360         194.00       842.66
 1306.53        2961.25           1364         563.00      2451.37
 1306.57        2961.50           1367        1655.00      7213.09
 1306.59        2961.75           1370        3849.00     16784.52
 1306.62        2962.00           1374        9243.00     40341.06
 1306.66        2962.25           1377       14038.00     61311.55
 1306.68        2962.50           1380       18695.00     81705.50
 1306.71        2962.75           1384       25076.00    109692.60
 1306.74        2963.00           1387       30315.00    132708.40
 1306.77        2963.25           1391       36654.00    160602.30
 1306.80        2963.50           1394       41194.00    180610.60
 1306.82        2963.75           1397       46228.00    202826.10
 1306.86        2964.00           1401       52729.00    231562.60
 1306.89        2964.25           1404       57444.00    252437.70
 1306.91        2964.50           1408       63862.00    280897.70
 1306.95        2964.75           1411       68700.00    302385.70
 1306.98        2965.00           1414       73570.00    324046.00
 1307.01        2965.25           1418       79971.00    352561.60
 1307.04        2965.50           1421       84589.00    373166.80
 1307.07        2965.75           1424       89086.00    393258.30
 1307.09        2966.00           1428       95033.00    419868.20
 1307.12        2966.25           1431       99791.00    441190.70
 1307.16        2966.50           1435      103480.00    457742.80
 1307.18        2966.75           1438      104267.00    461276.30
 1307.21        2967.00           1441      104606.00    462798.60
 1307.24        2967.25           1445      104990.00    464523.10
 1307.27        2967.50           1448      104505.00    462345.00
 1307.30        2967.75           1452      103090.00    455992.10
 1307.33        2968.00           1455       99917.00    441755.80
 1307.36        2968.25           1458       96847.00    427994.00
 1307.38        2968.50           1462       90510.00    399625.90
 1307.41        2968.75           1465       85639.00    377855.60
 1307.44        2969.00           1469       79244.00    349320.30
 1307.47        2969.25           1472       74308.00    327331.00
 1307.50        2969.50           1475       69578.00    306288.60
 1307.53        2969.75           1479       62516.00    274924.60
 1307.56        2970.00           1482       57772.00    253891.00
 1307.59        2970.25           1485       53384.00    234460.90
 1307.62        2970.50           1489       46747.00    205118.30
 1307.65        2970.75           1492       42269.00    185352.00
 1307.68        2971.00           1496       36515.00    159990.10
 1307.71        2971.25           1499       31611.00    138407.20
 1307.74        2971.50           1502       26851.00    117486.70
 1307.77        2971.75           1506       20319.00     88823.61
 1307.80        2972.00           1509       15213.00     66454.60
 1307.83        2972.25           1513        8631.00     37666.56
 1307.85        2972.50           1516        4411.00     19237.21
 1307.88        2972.75           1519        1645.00      7169.47
 1307.91        2973.00           1523         363.00      1579.42
 1307.94        2973.25           1526         187.00       812.14
 1307.97        2973.50           1530         133.00       576.73
 1308.00        2973.75           1533         126.00       546.22
 1308.03        2974.00           1536          83.00       358.77
 1308.05        2974.25           1540          71.00       306.45
 1308.09        2974.50           1543          61.00       262.86
 1308.11        2974.75           1547          54.00       232.35
 1308.14        2975.00           1550          51.00       219.27
 1308.18        2975.25           1553          46.00       197.47
 1308.20        2975.50           1557          42.00       180.04
 1308.23        2975.75           1560          45.00       193.11
 1308.26        2976.00           1564          46.00       197.47
 1308.29        2976.25           1567          45.00       193.11
 1308.32        2976.50           1570          48.00       206.19
 1308.35        2976.75           1574          46.00       197.47
 1308.38        2977.00           1577          46.00       197.47
 1308.40        2977.25           1581          40.00       171.32
 1308.43        2977.50           1584          53.00       227.99
 1308.46        2977.75           1587          51.00       219.27
 1308.49        2978.00           1591          40.00       171.32
 1308.52        2978.25           1594          50.00       214.91
 1308.55        2978.50           1598          43.00       184.40
 1308.58        2978.75           1601          53.00       227.99
 1308.60        2979.00           1604          39.00       166.96
 1308.64        2979.25           1608          37.00       158.24
 1308.67        2979.50           1611          46.00       197.47
 1308.69        2979.75           1614          47.00       201.83
 1308.73        2980.00           1618          45.00       193.11
 1308.75        2980.25           1621          40.00       171.32
 1308.78        2980.50           1625          42.00       180.04
 1308.81        2980.75           1628          41.00       175.68
 1308.84        2981.00           1631          44.00       188.75
 1308.87        2981.25           1635          41.00       175.68
 1308.89        2981.50           1638          42.00       180.04
 1308.93        2981.75           1642          44.00       188.75
 1308.95        2982.00           1645          34.00       145.16
 1308.98        2982.25           1648          42.00       180.04
 1309.01        2982.50           1652          44.00       188.75
 1309.04        2982.75           1655          42.00       180.04
 1309.07        2983.00           1659          41.00       175.68
 1309.10        2983.25           1662          37.00       158.24
 1309.13        2983.50           1666          40.00       171.32
 1309.15        2983.75           1669          40.00       171.32
 1309.18        2984.00           1672          36.00       153.88
HS scan finished at 21:49:33
end
