************************************************************
  HS Scan of (1) Internal mercury lamp
************************************************************
Integration time is 0.2294 seconds per sample
dh230617El Arenosillo 37.1 6.73 2.98pr1000
************************************************************
Dead Time -------------------------  3.2E-08 
Number of Cycles Used -------------  4 
Starting Wavelength (Angstroms) ---  2950 
Final Wavelength (Angstoms) -------  2984 
Wavelength Increment (Angstroms) --  .25 
Filter Wheel #1 Position ---------- (1) Ground quartz diffuser (ND=2.32)
Filter Wheel #2 Position ---------- (1) Neutral Density 0.494



************************************************************
HS scan start time = 01:27:43
Dark Count =  .7 


Time (GMT)  Wavelength (Ang)  Step Number  Raw Counts  Counts/Second

   88.34        2950.00           1211         104.00       450.31
   88.56        2950.25           1215         120.00       520.06
   88.58        2950.50           1218         101.00       437.23
   88.61        2950.75           1222         125.00       541.86
   88.64        2951.00           1225         123.00       533.14
   88.67        2951.25           1228         104.00       450.31
   88.70        2951.50           1232         129.00       559.30
   88.73        2951.75           1235         146.00       633.40
   88.76        2952.00           1238         109.00       472.11
   88.78        2952.25           1242         145.00       629.05
   88.82        2952.50           1245         111.00       480.83
   88.85        2952.75           1249         108.00       467.75
   88.87        2953.00           1252         132.00       572.37
   88.90        2953.25           1255         106.00       459.03
   88.93        2953.50           1259         123.00       533.14
   88.96        2953.75           1262         102.00       441.59
   88.99        2954.00           1265         129.00       559.30
   89.02        2954.25           1269         139.00       602.89
   89.05        2954.50           1272         113.00       489.55
   89.07        2954.75           1276         108.00       467.75
   89.11        2955.00           1279         112.00       485.19
   89.14        2955.25           1282         103.00       445.95
   89.16        2955.50           1286         166.00       720.59
   89.19        2955.75           1289         132.00       572.37
   89.22        2956.00           1293         124.00       537.50
   89.25        2956.25           1296         125.00       541.86
   89.28        2956.50           1299         122.00       528.78
   89.31        2956.75           1303         117.00       506.98
   89.34        2957.00           1306         109.00       472.11
   89.37        2957.25           1309         136.00       589.81
   89.40        2957.50           1313         123.00       533.14
   89.43        2957.75           1316         125.00       541.86
   89.45        2958.00           1320         115.00       498.26
   89.48        2958.25           1323         147.00       637.76
   89.52        2958.50           1326         121.00       524.42
   89.54        2958.75           1330         115.00       498.26
   89.57        2959.00           1333         115.00       498.26
   89.60        2959.25           1336         156.00       677.00
   89.63        2959.50           1340         151.00       655.20
   89.66        2959.75           1343         174.00       755.47
   89.69        2960.00           1347         209.00       908.05
   89.72        2960.25           1350         295.00      1282.96
   89.74        2960.50           1353         320.00      1391.95
   89.77        2960.75           1357         390.00      1697.13
   89.80        2961.00           1360         540.00      2351.09
   89.82        2961.25           1364        1355.00      5904.78
   89.85        2961.50           1367        3876.00     16902.34
   89.89        2961.75           1370       10377.00     45297.96
   89.91        2962.00           1374       25229.00    110364.20
   89.94        2962.25           1377       38496.00    168717.10
   89.97        2962.50           1380       51656.00    226816.00
   90.00        2962.75           1384       69415.00    305564.00
   90.03        2963.00           1387       82422.00    363494.40
   90.06        2963.25           1391       98929.00    437325.60
   90.09        2963.50           1394      112058.00    496299.70
   90.11        2963.75           1397      124423.00    552048.00
   90.14        2964.00           1401      141574.00    629708.10
   90.18        2964.25           1404      154188.00    687074.40
   90.20        2964.50           1408      172099.00    768898.30
   90.23        2964.75           1411      184133.00    824118.50
   90.27        2965.00           1414      196401.00    880617.00
   90.29        2965.25           1418      214866.00    966047.40
   90.32        2965.50           1421      227957.00   1026903.00
   90.35        2965.75           1424      240385.00   1084901.00
   90.38        2966.00           1428      256395.00   1159939.00
   90.41        2966.25           1431      268047.00   1214783.00
   90.43        2966.50           1435      277542.00   1259621.00
   90.46        2966.75           1438      279620.00   1269451.00
   90.49        2967.00           1441      279594.00   1269328.00
   90.51        2967.25           1445      279919.00   1270866.00
   90.55        2967.50           1448      278407.00   1263712.00
   90.57        2967.75           1452      274204.00   1243843.00
   90.60        2968.00           1455      265517.00   1202858.00
   90.63        2968.25           1458      254652.00   1151752.00
   90.66        2968.50           1462      238814.00   1077557.00
   90.69        2968.75           1465      226127.00   1018382.00
   90.72        2969.00           1469      209762.00    942385.70
   90.75        2969.25           1472      197673.00    886486.90
   90.77        2969.50           1475      184827.00    827309.20
   90.81        2969.75           1479      167324.00    747042.00
   90.84        2970.00           1482      155270.00    692005.10
   90.86        2970.25           1485      142943.00    635923.80
   90.89        2970.50           1489      126372.00    560853.50
   90.93        2970.75           1492      115624.00    512356.70
   90.96        2971.00           1496       98367.00    434806.10
   90.98        2971.25           1499       85066.00    375296.60
   91.02        2971.50           1502       72335.00    318550.20
   91.05        2971.75           1506       54878.00    241073.60
   91.07        2972.00           1509       41547.00    182167.40
   91.10        2972.25           1513       23678.00    103556.60
   91.13        2972.50           1516       12364.00     53987.26
   91.16        2972.75           1519        4501.00     19630.02
   91.19        2973.00           1523         972.00      4234.66
   91.22        2973.25           1526         547.00      2381.61
   91.25        2973.50           1530         419.00      1823.56
   91.27        2973.75           1533         354.00      1540.18
   91.31        2974.00           1536         294.00      1278.61
   91.33        2974.25           1540         259.00      1126.02
   91.36        2974.50           1543         191.00       829.58
   91.39        2974.75           1547         155.00       672.64
   91.42        2975.00           1550         151.00       655.20
   91.45        2975.25           1553         136.00       589.81
   91.47        2975.50           1557         140.00       607.25
   91.51        2975.75           1560         130.00       563.65
   91.54        2976.00           1564         142.00       615.97
   91.56        2976.25           1567         141.00       611.61
   91.60        2976.50           1570         173.00       751.11
   91.62        2976.75           1574         128.00       554.94
   91.65        2977.00           1577         159.00       690.08
   91.68        2977.25           1581         141.00       611.61
   91.71        2977.50           1584         155.00       672.64
   91.74        2977.75           1587         135.00       585.45
   91.76        2978.00           1591         169.00       733.67
   91.80        2978.25           1594         127.00       550.58
   91.82        2978.50           1598         130.00       563.65
   91.85        2978.75           1601         132.00       572.37
   91.88        2979.00           1604         148.00       642.12
   91.91        2979.25           1608         171.00       742.39
   91.94        2979.50           1611         148.00       642.12
   91.97        2979.75           1614         132.00       572.37
   92.00        2980.00           1618         150.00       650.84
   92.02        2980.25           1621         166.00       720.59
   92.05        2980.50           1625         158.00       685.72
   92.08        2980.75           1628         132.00       572.37
   92.11        2981.00           1631         138.00       598.53
   92.14        2981.25           1635         124.00       537.50
   92.17        2981.50           1638         144.00       624.69
   92.20        2981.75           1642         149.00       646.48
   92.23        2982.00           1645         147.00       637.76
   92.26        2982.25           1648         126.00       546.22
   92.29        2982.50           1652         116.00       502.62
   92.31        2982.75           1655         145.00       629.05
   92.34        2983.00           1659         128.00       554.94
   92.37        2983.25           1662         146.00       633.40
   92.39        2983.50           1666         134.00       581.09
   92.42        2983.75           1669         139.00       602.89
   92.45        2984.00           1672         140.00       607.25
HS scan finished at 01:32:49
end
