************************************************************
  HS Scan of (1) Internal mercury lamp
************************************************************
Integration time is 0.2294 seconds per sample
dh200619El Arenosillo 37.1 6.73 2.98pr1000
************************************************************
Dead Time -------------------------  3.2E-08 
Number of Cycles Used -------------  4 
Starting Wavelength (Angstroms) ---  2950 
Final Wavelength (Angstoms) -------  2984 
Wavelength Increment (Angstroms) --  .25 
Filter Wheel #1 Position ---------- (1) Ground quartz diffuser (ND=2.32)
Filter Wheel #2 Position ---------- (1) Neutral Density 0.494



************************************************************
HS scan start time = 03:37:54
Dark Count =  2.4 


Time (GMT)  Wavelength (Ang)  Step Number  Raw Counts  Counts/Second

  218.53        2950.00           1211          56.00       233.65
  218.74        2950.25           1215          64.00       268.53
  218.77        2950.50           1218          55.00       229.30
  218.80        2950.75           1222          64.00       268.53
  218.83        2951.00           1225          64.00       268.53
  218.86        2951.25           1228          60.00       251.09
  218.88        2951.50           1232          62.00       259.81
  218.92        2951.75           1235          64.00       268.53
  218.94        2952.00           1238          66.00       277.25
  218.97        2952.25           1242          64.00       268.53
  219.01        2952.50           1245          55.00       229.30
  219.03        2952.75           1249          65.00       272.89
  219.06        2953.00           1252          63.00       264.17
  219.10        2953.25           1255          60.00       251.09
  219.12        2953.50           1259          58.00       242.37
  219.15        2953.75           1262          62.00       259.81
  219.18        2954.00           1265          65.00       272.89
  219.21        2954.25           1269          62.00       259.81
  219.24        2954.50           1272          68.00       285.97
  219.27        2954.75           1276          58.00       242.37
  219.30        2955.00           1279          64.00       268.53
  219.32        2955.25           1282          62.00       259.81
  219.36        2955.50           1286          60.00       251.09
  219.39        2955.75           1289          66.00       277.25
  219.41        2956.00           1293          68.00       285.97
  219.44        2956.25           1296          67.00       281.61
  219.48        2956.50           1299          69.00       290.33
  219.50        2956.75           1303          63.00       264.17
  219.53        2957.00           1306          63.00       264.17
  219.56        2957.25           1309          66.00       277.25
  219.59        2957.50           1313          65.00       272.89
  219.62        2957.75           1316          62.00       259.81
  219.65        2958.00           1320          66.00       277.25
  219.68        2958.25           1323          67.00       281.61
  219.70        2958.50           1326          64.00       268.53
  219.74        2958.75           1330          74.00       312.12
  219.76        2959.00           1333          77.00       325.20
  219.79        2959.25           1336         101.00       429.82
  219.82        2959.50           1340         101.00       429.82
  219.85        2959.75           1343         116.00       495.21
  219.88        2960.00           1347         130.00       556.24
  219.91        2960.25           1350         137.00       586.76
  219.94        2960.50           1353         180.00       774.21
  219.96        2960.75           1357         218.00       939.87
  220.00        2961.00           1360         354.00      1532.77
  220.03        2961.25           1364        1427.00      6211.35
  220.05        2961.50           1367        4065.00     17719.72
  220.09        2961.75           1370        8854.00     38633.61
  220.12        2962.00           1374       18153.00     79323.15
  220.14        2962.25           1377       25907.00    113333.60
  220.17        2962.50           1380       33250.00    145609.80
  220.20        2962.75           1384       43024.00    188675.40
  220.23        2963.00           1387       50598.00    222129.60
  220.26        2963.25           1391       60347.00    265296.80
  220.29        2963.50           1394       67925.00    298934.00
  220.32        2963.75           1397       75068.00    330707.10
  220.35        2964.00           1401       83982.00    370449.20
  220.38        2964.25           1404       91014.00    401872.50
  220.41        2964.50           1408      100210.00    443062.20
  220.44        2964.75           1411      107184.00    474372.40
  220.47        2965.00           1414      114096.00    505466.70
  220.50        2965.25           1418      122920.00    545253.30
  220.53        2965.50           1421      130414.00    579123.50
  220.56        2965.75           1424      137261.00    610134.30
  220.59        2966.00           1428      146322.00    651268.50
  220.61        2966.25           1431      151798.00    676181.00
  220.64        2966.50           1435      155156.00    691477.80
  220.68        2966.75           1438      156250.00    696464.50
  220.70        2967.00           1441      155816.00    694486.10
  220.73        2967.25           1445      156110.00    695826.30
  220.76        2967.50           1448      155173.00    691555.20
  220.79        2967.75           1452      151216.00    673531.30
  220.81        2968.00           1455      146316.00    651241.10
  220.85        2968.25           1458      139632.00    620887.40
  220.88        2968.50           1462      130846.00    581078.20
  220.90        2968.75           1465      123342.00    547158.60
  220.94        2969.00           1469      113288.00    501828.70
  220.96        2969.25           1472      105774.00    468037.00
  220.99        2969.50           1475       98674.00    436174.80
  221.02        2969.75           1479       88767.00    391824.70
  221.05        2970.00           1482       81579.00    359725.70
  221.08        2970.25           1485       74214.00    326905.00
  221.11        2970.50           1489       65311.00    287322.80
  221.14        2970.75           1492       58488.00    257056.20
  221.17        2971.00           1496       49474.00    217160.40
  221.20        2971.25           1499       42672.00    187122.40
  221.23        2971.50           1502       35726.00    156508.10
  221.25        2971.75           1506       26012.00    113794.60
  221.28        2972.00           1509       18855.00     82399.21
  221.31        2972.25           1513        9708.00     42366.03
  221.34        2972.50           1516        4222.00     18404.91
  221.36        2972.75           1519        1329.00      5783.98
  221.40        2973.00           1523         345.00      1493.53
  221.43        2973.25           1526         230.00       992.18
  221.45        2973.50           1530         192.00       826.53
  221.49        2973.75           1533         154.00       660.87
  221.51        2974.00           1536         150.00       643.43
  221.54        2974.25           1540         125.00       534.45
  221.57        2974.50           1543          96.00       408.03
  221.60        2974.75           1547          87.00       368.79
  221.63        2975.00           1550          81.00       342.64
  221.66        2975.25           1553          81.00       342.64
  221.69        2975.50           1557          84.00       355.71
  221.71        2975.75           1560          74.00       312.12
  221.75        2976.00           1564          72.00       303.40
  221.78        2976.25           1567          81.00       342.64
  221.80        2976.50           1570          78.00       329.56
  221.83        2976.75           1574          81.00       342.64
  221.86        2977.00           1577          72.00       303.40
  221.89        2977.25           1581          79.00       333.92
  221.92        2977.50           1584          71.00       299.04
  221.95        2977.75           1587          71.00       299.04
  221.98        2978.00           1591          68.00       285.97
  222.00        2978.25           1594          72.00       303.40
  222.04        2978.50           1598          75.00       316.48
  222.07        2978.75           1601          76.00       320.84
  222.09        2979.00           1604          66.00       277.25
  222.13        2979.25           1608          65.00       272.89
  222.15        2979.50           1611          77.00       325.20
  222.18        2979.75           1614          75.00       316.48
  222.21        2980.00           1618          72.00       303.40
  222.24        2980.25           1621          71.00       299.04
  222.27        2980.50           1625          72.00       303.40
  222.30        2980.75           1628          68.00       285.97
  222.33        2981.00           1631          70.00       294.68
  222.35        2981.25           1635          66.00       277.25
  222.39        2981.50           1638          71.00       299.04
  222.42        2981.75           1642          70.00       294.68
  222.44        2982.00           1645          69.00       290.33
  222.47        2982.25           1648          72.00       303.40
  222.50        2982.50           1652          65.00       272.89
  222.53        2982.75           1655          71.00       299.04
  222.56        2983.00           1659          68.00       285.97
  222.59        2983.25           1662          64.00       268.53
  222.62        2983.50           1666          60.00       251.09
  222.64        2983.75           1669          74.00       312.12
  222.68        2984.00           1672          76.00       320.84
HS scan finished at 03:43:03
end
