************************************************************
  HS Scan of (1) Internal mercury lamp
************************************************************
Integration time is 0.2294 seconds per sample
dh230618El Arenosillo 37.1 6.73 2.96pr1000
************************************************************
Dead Time -------------------------  3.2E-08 
Number of Cycles Used -------------  4 
Starting Wavelength (Angstroms) ---  2950 
Final Wavelength (Angstoms) -------  2984 
Wavelength Increment (Angstroms) --  .25 
Filter Wheel #1 Position ---------- (1) Ground quartz diffuser (ND=2.32)
Filter Wheel #2 Position ---------- (1) Neutral Density 0.494



************************************************************
HS scan start time = 01:27:42
Dark Count =  .6 


Time (GMT)  Wavelength (Ang)  Step Number  Raw Counts  Counts/Second

   88.32        2950.00           1211          53.00       228.42
   88.53        2950.25           1215          56.00       241.50
   88.55        2950.50           1218          55.00       237.14
   88.58        2950.75           1222          61.00       263.30
   88.61        2951.00           1225          50.00       215.35
   88.64        2951.25           1228          58.00       250.22
   88.67        2951.50           1232          58.00       250.22
   88.70        2951.75           1235          58.00       250.22
   88.73        2952.00           1238          54.00       232.78
   88.75        2952.25           1242          61.00       263.30
   88.79        2952.50           1245          57.00       245.86
   88.82        2952.75           1249          47.00       202.27
   88.84        2953.00           1252          54.00       232.78
   88.87        2953.25           1255          57.00       245.86
   88.90        2953.50           1259          55.00       237.14
   88.93        2953.75           1262          58.00       250.22
   88.96        2954.00           1265          55.00       237.14
   88.99        2954.25           1269          53.00       228.42
   89.02        2954.50           1272          52.00       224.06
   89.04        2954.75           1276          59.00       254.58
   89.08        2955.00           1279          53.00       228.42
   89.10        2955.25           1282          58.00       250.22
   89.13        2955.50           1286          61.00       263.30
   89.16        2955.75           1289          57.00       245.86
   89.19        2956.00           1293          55.00       237.14
   89.22        2956.25           1296          55.00       237.14
   89.25        2956.50           1299          54.00       232.78
   89.28        2956.75           1303          54.00       232.78
   89.31        2957.00           1306          56.00       241.50
   89.33        2957.25           1309          58.00       250.22
   89.37        2957.50           1313          52.00       224.06
   89.39        2957.75           1316          56.00       241.50
   89.42        2958.00           1320          51.00       219.71
   89.45        2958.25           1323          57.00       245.86
   89.48        2958.50           1326          58.00       250.22
   89.51        2958.75           1330          62.00       267.66
   89.54        2959.00           1333          60.00       258.94
   89.57        2959.25           1336          81.00       350.48
   89.59        2959.50           1340          82.00       354.84
   89.62        2959.75           1343          93.00       402.80
   89.66        2960.00           1347         143.00       620.76
   89.68        2960.25           1350         152.00       660.00
   89.71        2960.50           1353         183.00       795.14
   89.74        2960.75           1357         225.00       978.23
   89.77        2961.00           1360         258.00      1122.10
   89.80        2961.25           1364         584.00      2543.36
   89.83        2961.50           1367        1700.00      7409.78
   89.86        2961.75           1370        4539.00     19796.32
   89.88        2962.00           1374       12657.00     55269.42
   89.91        2962.25           1377       20201.00     88306.74
   89.95        2962.50           1380       28385.00    124226.10
   89.97        2962.75           1384       39395.00    172679.60
   90.00        2963.00           1387       47252.00    207349.50
   90.03        2963.25           1391       58134.00    255495.40
   90.06        2963.50           1394       65934.00    290097.30
   90.09        2963.75           1397       74131.00    326543.50
   90.12        2964.00           1401       85238.00    376065.20
   90.15        2964.25           1404       93222.00    411760.40
   90.18        2964.50           1408      103967.00    459929.70
   90.21        2964.75           1411      112192.00    496903.30
   90.24        2965.00           1414      119718.00    530812.10
   90.27        2965.25           1418      131002.00    581792.30
   90.30        2965.50           1421      139658.00    621013.50
   90.33        2965.75           1424      147474.00    656514.30
   90.36        2966.00           1428      158461.00    706556.10
   90.39        2966.25           1431      165435.00    738404.50
   90.42        2966.50           1435      173247.00    774158.10
   90.44        2966.75           1438      175758.00    785667.90
   90.47        2967.00           1441      176791.00    790405.40
   90.50        2967.25           1445      176312.00    788208.40
   90.53        2967.50           1448      176027.00    786901.40
   90.56        2967.75           1452      173950.00    777379.60
   90.59        2968.00           1455      169396.00    756522.70
   90.62        2968.25           1458      162803.00    726377.20
   90.64        2968.50           1462      153107.00    682150.30
   90.68        2968.75           1465      145282.00    646549.90
   90.70        2969.00           1469      134795.00    598966.60
   90.73        2969.25           1472      126591.00    561843.80
   90.76        2969.50           1475      118606.00    525797.30
   90.79        2969.75           1479      107577.00    476146.70
   90.82        2970.00           1482      100283.00    443397.70
   90.85        2970.25           1485       92456.00    408332.20
   90.88        2970.50           1489       83275.00    367301.50
   90.91        2970.75           1492       75666.00    333378.10
   90.94        2971.00           1496       64517.00    283805.50
   90.98        2971.25           1499       56599.00    248695.00
   91.00        2971.50           1502       48287.00    211922.30
   91.03        2971.75           1506       36989.00    162078.20
   91.06        2972.00           1509       28323.00    123953.70
   91.09        2972.25           1513       17059.00     74538.53
   91.12        2972.50           1516        9743.00     42526.89
   91.15        2972.75           1519        4045.00     17640.30
   91.18        2973.00           1523         727.00      3166.84
   91.20        2973.25           1526         334.00      1453.42
   91.23        2973.50           1530         215.00       934.64
   91.26        2973.75           1533         178.00       773.34
   91.29        2974.00           1536         154.00       668.72
   91.32        2974.25           1540         107.00       463.83
   91.35        2974.50           1543          91.00       394.08
   91.38        2974.75           1547          78.00       337.41
   91.40        2975.00           1550          77.00       333.05
   91.44        2975.25           1553          79.00       341.76
   91.46        2975.50           1557          65.00       280.73
   91.49        2975.75           1560          71.00       306.89
   91.53        2976.00           1564          72.00       311.25
   91.55        2976.25           1567          64.00       276.38
   91.58        2976.50           1570          64.00       276.38
   91.61        2976.75           1574          64.00       276.38
   91.64        2977.00           1577          62.00       267.66
   91.67        2977.25           1581          67.00       289.45
   91.69        2977.50           1584          67.00       289.45
   91.73        2977.75           1587          57.00       245.86
   91.75        2978.00           1591          66.00       285.09
   91.78        2978.25           1594          73.00       315.61
   91.81        2978.50           1598          64.00       276.38
   91.84        2978.75           1601          67.00       289.45
   91.87        2979.00           1604          70.00       302.53
   91.90        2979.25           1608          65.00       280.73
   91.93        2979.50           1611          63.00       272.02
   91.95        2979.75           1614          63.00       272.02
   91.98        2980.00           1618          73.00       315.61
   92.01        2980.25           1621          70.00       302.53
   92.03        2980.50           1625          57.00       245.86
   92.06        2980.75           1628          65.00       280.73
   92.09        2981.00           1631          63.00       272.02
   92.12        2981.25           1635          62.00       267.66
   92.15        2981.50           1638          66.00       285.09
   92.18        2981.75           1642          62.00       267.66
   92.21        2982.00           1645          64.00       276.38
   92.23        2982.25           1648          62.00       267.66
   92.27        2982.50           1652          67.00       289.45
   92.29        2982.75           1655          63.00       272.02
   92.32        2983.00           1659          62.00       267.66
   92.35        2983.25           1662          65.00       280.73
   92.38        2983.50           1666          62.00       267.66
   92.41        2983.75           1669          62.00       267.66
   92.43        2984.00           1672          68.00       293.81
HS scan finished at 01:32:49
end
