************************************************************
  HS Scan of (1) Internal mercury lamp
************************************************************
Integration time is 0.2294 seconds per sample
dh220619El Arenosillo 37.1 6.73 3.03pr1000
************************************************************
Dead Time -------------------------  3.2E-08 
Number of Cycles Used -------------  4 
Starting Wavelength (Angstroms) ---  2950 
Final Wavelength (Angstoms) -------  2984 
Wavelength Increment (Angstroms) --  .25 
Filter Wheel #1 Position ---------- (1) Ground quartz diffuser (ND=2.32)
Filter Wheel #2 Position ---------- (1) Neutral Density 0.494



************************************************************
HS scan start time = 21:39:32
Dark Count =  1 


Time (GMT)  Wavelength (Ang)  Step Number  Raw Counts  Counts/Second

 1300.15        2950.00           1211          31.00       130.78
 1300.36        2950.25           1215          32.00       135.14
 1300.38        2950.50           1218          32.00       135.14
 1300.42        2950.75           1222          32.00       135.14
 1300.44        2951.00           1225          30.00       126.42
 1300.47        2951.25           1228          31.00       130.78
 1300.50        2951.50           1232          34.00       143.85
 1300.52        2951.75           1235          33.00       139.49
 1300.55        2952.00           1238          40.00       170.01
 1300.58        2952.25           1242          32.00       135.14
 1300.61        2952.50           1245          35.00       148.21
 1300.63        2952.75           1249          37.00       156.93
 1300.66        2953.00           1252          35.00       148.21
 1300.69        2953.25           1255          30.00       126.42
 1300.72        2953.50           1259          28.00       117.70
 1300.74        2953.75           1262          31.00       130.78
 1300.77        2954.00           1265          31.00       130.78
 1300.80        2954.25           1269          35.00       148.21
 1300.82        2954.50           1272          33.00       139.49
 1300.85        2954.75           1276          33.00       139.49
 1300.88        2955.00           1279          35.00       148.21
 1300.90        2955.25           1282          38.00       161.29
 1300.93        2955.50           1286          37.00       156.93
 1300.95        2955.75           1289          37.00       156.93
 1300.98        2956.00           1293          39.00       165.65
 1301.01        2956.25           1296          43.00       183.09
 1301.04        2956.50           1299          31.00       130.78
 1301.07        2956.75           1303          36.00       152.57
 1301.09        2957.00           1306          37.00       156.93
 1301.12        2957.25           1309          35.00       148.21
 1301.14        2957.50           1313          39.00       165.65
 1301.18        2957.75           1316          41.00       174.37
 1301.20        2958.00           1320          38.00       161.29
 1301.23        2958.25           1323          30.00       126.42
 1301.26        2958.50           1326          37.00       156.93
 1301.29        2958.75           1330          33.00       139.49
 1301.32        2959.00           1333          40.00       170.01
 1301.35        2959.25           1336          45.00       191.81
 1301.37        2959.50           1340          58.00       248.48
 1301.40        2959.75           1343          70.00       300.79
 1301.42        2960.00           1347          86.00       370.54
 1301.45        2960.25           1350          87.00       374.90
 1301.48        2960.50           1353          99.00       427.21
 1301.51        2960.75           1357         149.00       645.17
 1301.54        2961.00           1360         157.00       680.05
 1301.56        2961.25           1364         380.00      1652.22
 1301.59        2961.50           1367        1226.00      5340.93
 1301.62        2961.75           1370        3136.00     13672.07
 1301.65        2962.00           1374        7684.00     33527.67
 1301.68        2962.25           1377       11855.00     51759.60
 1301.70        2962.50           1380       16094.00     70310.59
 1301.73        2962.75           1384       21918.00     95833.99
 1301.75        2963.00           1387       26543.00    116132.60
 1301.79        2963.25           1391       32696.00    143178.50
 1301.81        2963.50           1394       37105.00    162587.40
 1301.84        2963.75           1397       42024.00    184270.00
 1301.87        2964.00           1401       48116.00    211164.90
 1301.90        2964.25           1404       52303.00    229676.60
 1301.93        2964.50           1408       58134.00    255493.60
 1301.95        2964.75           1411       62720.00    275828.50
 1301.98        2965.00           1414       67371.00    296478.60
 1302.01        2965.25           1418       72929.00    321192.00
 1302.04        2965.50           1421       77028.00    339443.10
 1302.06        2965.75           1424       81570.00    359691.80
 1302.09        2966.00           1428       87409.00    385761.50
 1302.12        2966.25           1431       91371.00    403475.80
 1302.15        2966.50           1435       95900.00    423750.00
 1302.17        2966.75           1438       97112.00    429180.10
 1302.20        2967.00           1441       97374.00    430354.10
 1302.23        2967.25           1445       97570.00    431232.50
 1302.26        2967.50           1448       97413.00    430528.90
 1302.29        2967.75           1452       95713.00    422912.40
 1302.31        2968.00           1455       93310.00    412152.50
 1302.34        2968.25           1458       89369.00    394522.20
 1302.36        2968.50           1462       84341.00    372058.10
 1302.40        2968.75           1465       80165.00    353425.30
 1302.42        2969.00           1469       74629.00    328758.70
 1302.45        2969.25           1472       69652.00    306616.20
 1302.47        2969.50           1475       65213.00    286893.90
 1302.50        2969.75           1479       58740.00    258179.20
 1302.53        2970.00           1482       53993.00    237154.80
 1302.56        2970.25           1485       49401.00    216843.90
 1302.59        2970.50           1489       43550.00    191002.60
 1302.61        2970.75           1492       39426.00    172814.40
 1302.64        2971.00           1496       34035.00    149070.40
 1302.67        2971.25           1499       30547.00    133727.10
 1302.70        2971.50           1502       26035.00    113901.80
 1302.73        2971.75           1506       20247.00     88506.63
 1302.75        2972.00           1509       15962.00     69732.60
 1302.78        2972.25           1513       10029.00     43775.32
 1302.80        2972.50           1516        5875.00     25626.94
 1302.83        2972.75           1519        2518.00     10975.96
 1302.87        2973.00           1523         498.00      2166.67
 1302.89        2973.25           1526         179.00       775.96
 1302.92        2973.50           1530         119.00       514.39
 1302.94        2973.75           1533          94.00       405.41
 1302.97        2974.00           1536          82.00       353.10
 1303.00        2974.25           1540          64.00       274.63
 1303.03        2974.50           1543          56.00       239.76
 1303.06        2974.75           1547          46.00       196.17
 1303.08        2975.00           1550          49.00       209.24
 1303.10        2975.25           1553          37.00       156.93
 1303.12        2975.50           1557          48.00       204.88
 1303.15        2975.75           1560          47.00       200.52
 1303.18        2976.00           1564          47.00       200.52
 1303.21        2976.25           1567          42.00       178.73
 1303.23        2976.50           1570          40.00       170.01
 1303.26        2976.75           1574          42.00       178.73
 1303.29        2977.00           1577          43.00       183.09
 1303.32        2977.25           1581          41.00       174.37
 1303.34        2977.50           1584          45.00       191.81
 1303.37        2977.75           1587          42.00       178.73
 1303.40        2978.00           1591          45.00       191.81
 1303.42        2978.25           1594          37.00       156.93
 1303.46        2978.50           1598          39.00       165.65
 1303.48        2978.75           1601          45.00       191.81
 1303.51        2979.00           1604          48.00       204.88
 1303.53        2979.25           1608          46.00       196.17
 1303.56        2979.50           1611          42.00       178.73
 1303.59        2979.75           1614          44.00       187.45
 1303.62        2980.00           1618          38.00       161.29
 1303.65        2980.25           1621          40.00       170.01
 1303.67        2980.50           1625          39.00       165.65
 1303.70        2980.75           1628          42.00       178.73
 1303.72        2981.00           1631          44.00       187.45
 1303.76        2981.25           1635          40.00       170.01
 1303.78        2981.50           1638          47.00       200.52
 1303.81        2981.75           1642          36.00       152.57
 1303.84        2982.00           1645          38.00       161.29
 1303.86        2982.25           1648          41.00       174.37
 1303.89        2982.50           1652          41.00       174.37
 1303.92        2982.75           1655          40.00       170.01
 1303.95        2983.00           1659          43.00       183.09
 1303.97        2983.25           1662          40.00       170.01
 1304.00        2983.50           1666          37.00       156.93
 1304.03        2983.75           1669          36.00       152.57
 1304.06        2984.00           1672          41.00       174.37
HS scan finished at 21:44:26
end
