************************************************************
  HS Scan of (1) Internal mercury lamp
************************************************************
Integration time is 0.2294 seconds per sample
dh230619El Arenosillo 37.1 6.73 2.92pr1000
************************************************************
Dead Time -------------------------  3.2E-08 
Number of Cycles Used -------------  4 
Starting Wavelength (Angstroms) ---  2950 
Final Wavelength (Angstoms) -------  2984 
Wavelength Increment (Angstroms) --  .25 
Filter Wheel #1 Position ---------- (1) Ground quartz diffuser (ND=2.32)
Filter Wheel #2 Position ---------- (1) Neutral Density 0.494



************************************************************
HS scan start time = 01:23:42
Dark Count =  .7 


Time (GMT)  Wavelength (Ang)  Step Number  Raw Counts  Counts/Second

   84.33        2950.00           1211          28.00       119.01
   84.54        2950.25           1215          30.00       127.73
   84.57        2950.50           1218          33.00       140.80
   84.59        2950.75           1222          28.00       119.01
   84.63        2951.00           1225          33.00       140.80
   84.66        2951.25           1228          30.00       127.73
   84.68        2951.50           1232          29.00       123.37
   84.72        2951.75           1235          34.00       145.16
   84.74        2952.00           1238          33.00       140.80
   84.77        2952.25           1242          30.00       127.73
   84.81        2952.50           1245          29.00       123.37
   84.83        2952.75           1249          26.00       110.29
   84.86        2953.00           1252          29.00       123.37
   84.89        2953.25           1255          35.00       149.52
   84.92        2953.50           1259          35.00       149.52
   84.95        2953.75           1262          31.00       132.08
   84.98        2954.00           1265          35.00       149.52
   85.01        2954.25           1269          38.00       162.60
   85.03        2954.50           1272          28.00       119.01
   85.06        2954.75           1276          33.00       140.80
   85.09        2955.00           1279          30.00       127.73
   85.12        2955.25           1282          31.00       132.08
   85.15        2955.50           1286          35.00       149.52
   85.18        2955.75           1289          33.00       140.80
   85.21        2956.00           1293          35.00       149.52
   85.23        2956.25           1296          35.00       149.52
   85.27        2956.50           1299          29.00       123.37
   85.30        2956.75           1303          30.00       127.73
   85.32        2957.00           1306          36.00       153.88
   85.36        2957.25           1309          34.00       145.16
   85.38        2957.50           1313          33.00       140.80
   85.41        2957.75           1316          28.00       119.01
   85.45        2958.00           1320          36.00       153.88
   85.47        2958.25           1323          31.00       132.08
   85.50        2958.50           1326          34.00       145.16
   85.53        2958.75           1330          37.00       158.24
   85.56        2959.00           1333          41.00       175.68
   85.58        2959.25           1336          43.00       184.40
   85.62        2959.50           1340          57.00       245.42
   85.65        2959.75           1343          58.00       249.78
   85.67        2960.00           1347          73.00       315.17
   85.70        2960.25           1350          74.00       319.53
   85.73        2960.50           1353          89.00       384.92
   85.76        2960.75           1357         133.00       576.73
   85.79        2961.00           1360         138.00       598.53
   85.82        2961.25           1364         436.00      1897.67
   85.85        2961.50           1367        1213.00      5285.55
   85.87        2961.75           1370        2794.00     12181.30
   85.91        2962.00           1374        6738.00     29396.87
   85.94        2962.25           1377       10316.00     45031.28
   85.96        2962.50           1380       13981.00     61062.09
   86.00        2962.75           1384       18699.00     81723.03
   86.02        2963.00           1387       22367.00     97804.75
   86.05        2963.25           1391       27526.00    120451.60
   86.08        2963.50           1394       31238.00    136766.90
   86.11        2963.75           1397       35212.00    154252.60
   86.14        2964.00           1401       40393.00    177078.60
   86.17        2964.25           1404       44080.00    193342.90
   86.20        2964.50           1408       48813.00    214246.30
   86.23        2964.75           1411       52538.00    230717.60
   86.26        2965.00           1414       56362.00    247644.80
   86.29        2965.25           1418       60923.00    267858.50
   86.32        2965.50           1421       65053.00    286184.80
   86.35        2965.75           1424       68581.00    301856.80
   86.38        2966.00           1428       73477.00    323632.00
   86.41        2966.25           1431       77273.00    340536.00
   86.43        2966.50           1435       80568.00    355223.90
   86.46        2966.75           1438       81673.00    360152.60
   86.49        2967.00           1441       82230.00    362637.70
   86.52        2967.25           1445       82128.00    362182.60
   86.55        2967.50           1448       82108.00    362093.30
   86.58        2967.75           1452       81267.00    358341.50
   86.61        2968.00           1455       79132.00    348821.00
   86.64        2968.25           1458       76489.00    337043.20
   86.67        2968.50           1462       71929.00    316744.00
   86.69        2968.75           1465       68147.00    299928.00
   86.73        2969.00           1469       63307.00    278434.50
   86.75        2969.25           1472       59639.00    262165.30
   86.78        2969.50           1475       55881.00    245514.60
   86.81        2969.75           1479       50642.00    222331.60
   86.84        2970.00           1482       46906.00    205820.60
   86.87        2970.25           1485       42847.00    187901.90
   86.89        2970.50           1489       37723.00    165311.20
   86.92        2970.75           1492       34073.00    149238.90
   86.95        2971.00           1496       29214.00    127868.70
   86.98        2971.25           1499       25730.00    112563.90
   87.01        2971.50           1502       21952.00     95984.43
   87.04        2971.75           1506       17312.00     75646.29
   87.06        2972.00           1509       13630.00     59526.10
   87.10        2972.25           1513        9108.00     39751.06
   87.12        2972.50           1516        5923.00     25837.84
   87.15        2972.75           1519        2908.00     12678.64
   87.18        2973.00           1523         617.00      2686.80
   87.21        2973.25           1526         182.00       790.34
   87.24        2973.50           1530         114.00       493.90
   87.27        2973.75           1533          71.00       306.45
   87.30        2974.00           1536          62.00       267.22
   87.32        2974.25           1540          57.00       245.42
   87.36        2974.50           1543          49.00       210.55
   87.39        2974.75           1547          45.00       193.11
   87.41        2975.00           1550          37.00       158.24
   87.44        2975.25           1553          41.00       175.68
   87.47        2975.50           1557          36.00       153.88
   87.50        2975.75           1560          42.00       180.04
   87.53        2976.00           1564          39.00       166.96
   87.56        2976.25           1567          37.00       158.24
   87.59        2976.50           1570          38.00       162.60
   87.61        2976.75           1574          35.00       149.52
   87.65        2977.00           1577          43.00       184.40
   87.67        2977.25           1581          38.00       162.60
   87.70        2977.50           1584          38.00       162.60
   87.73        2977.75           1587          36.00       153.88
   87.76        2978.00           1591          33.00       140.80
   87.79        2978.25           1594          37.00       158.24
   87.82        2978.50           1598          37.00       158.24
   87.85        2978.75           1601          44.00       188.75
   87.87        2979.00           1604          40.00       171.32
   87.91        2979.25           1608          40.00       171.32
   87.94        2979.50           1611          41.00       175.68
   87.96        2979.75           1614          33.00       140.80
   87.99        2980.00           1618          38.00       162.60
   88.02        2980.25           1621          40.00       171.32
   88.05        2980.50           1625          40.00       171.32
   88.08        2980.75           1628          38.00       162.60
   88.11        2981.00           1631          35.00       149.52
   88.14        2981.25           1635          35.00       149.52
   88.16        2981.50           1638          36.00       153.88
   88.20        2981.75           1642          41.00       175.68
   88.22        2982.00           1645          33.00       140.80
   88.25        2982.25           1648          36.00       153.88
   88.28        2982.50           1652          31.00       132.08
   88.31        2982.75           1655          36.00       153.88
   88.34        2983.00           1659          35.00       149.52
   88.37        2983.25           1662          31.00       132.08
   88.40        2983.50           1666          32.00       136.44
   88.43        2983.75           1669          34.00       145.16
   88.46        2984.00           1672          36.00       153.88
HS scan finished at 01:28:50
end
