************************************************************
  HS Scan of (1) Internal mercury lamp
************************************************************
Integration time is 0.2294 seconds per sample
dh190619El Arenosillo 37.1 6.73 3.09pr1000
************************************************************
Dead Time -------------------------  3.2E-08 
Number of Cycles Used -------------  4 
Starting Wavelength (Angstroms) ---  2950 
Final Wavelength (Angstoms) -------  2984 
Wavelength Increment (Angstroms) --  .25 
Filter Wheel #1 Position ---------- (1) Ground quartz diffuser (ND=2.32)
Filter Wheel #2 Position ---------- (1) Neutral Density 0.494



************************************************************
HS scan start time = 02:28:12
Dark Count =  5.9 


Time (GMT)  Wavelength (Ang)  Step Number  Raw Counts  Counts/Second

  148.82        2950.00           1211          39.00       144.29
  149.04        2950.25           1215          39.00       144.29
  149.07        2950.50           1218          41.00       153.01
  149.09        2950.75           1222          35.00       126.85
  149.13        2951.00           1225          41.00       153.01
  149.15        2951.25           1228          40.00       148.65
  149.18        2951.50           1232          39.00       144.29
  149.22        2951.75           1235          41.00       153.01
  149.24        2952.00           1238          40.00       148.65
  149.27        2952.25           1242          43.00       161.73
  149.30        2952.50           1245          39.00       144.29
  149.33        2952.75           1249          30.00       105.06
  149.36        2953.00           1252          36.00       131.21
  149.38        2953.25           1255          33.00       118.13
  149.42        2953.50           1259          33.00       118.13
  149.44        2953.75           1262          36.00       131.21
  149.47        2954.00           1265          38.00       139.93
  149.51        2954.25           1269          37.00       135.57
  149.53        2954.50           1272          36.00       131.21
  149.56        2954.75           1276          33.00       118.13
  149.59        2955.00           1279          31.00       109.42
  149.61        2955.25           1282          38.00       139.93
  149.64        2955.50           1286          43.00       161.73
  149.67        2955.75           1289          40.00       148.65
  149.70        2956.00           1293          44.00       166.09
  149.73        2956.25           1296          40.00       148.65
  149.75        2956.50           1299          45.00       170.45
  149.79        2956.75           1303          44.00       166.09
  149.81        2957.00           1306          39.00       144.29
  149.84        2957.25           1309          37.00       135.57
  149.87        2957.50           1313          39.00       144.29
  149.90        2957.75           1316          43.00       161.73
  149.93        2958.00           1320          43.00       161.73
  149.96        2958.25           1323          39.00       144.29
  149.99        2958.50           1326          39.00       144.29
  150.02        2958.75           1330          47.00       179.16
  150.04        2959.00           1333          51.00       196.60
  150.08        2959.25           1336          61.00       240.19
  150.10        2959.50           1340          68.00       270.71
  150.13        2959.75           1343          76.00       305.58
  150.17        2960.00           1347          84.00       340.46
  150.19        2960.25           1350          99.00       405.85
  150.22        2960.50           1353         121.00       501.75
  150.25        2960.75           1357         163.00       684.85
  150.28        2961.00           1360         191.00       806.91
  150.31        2961.25           1364         679.00      2934.45
  150.33        2961.50           1367        1818.00      7901.30
  150.37        2961.75           1370        4358.00     18983.19
  150.40        2962.00           1374        9807.00     42783.47
  150.42        2962.25           1377       14486.00     63249.51
  150.46        2962.50           1380       19482.00     85131.78
  150.48        2962.75           1384       25987.00    113669.50
  150.51        2963.00           1387       30689.00    134329.90
  150.54        2963.25           1391       37051.00    162328.00
  150.57        2963.50           1394       42031.00    184279.20
  150.60        2963.75           1397       46848.00    205541.50
  150.63        2964.00           1401       52757.00    231663.50
  150.66        2964.25           1404       57045.00    250647.10
  150.69        2964.50           1408       63460.00    279090.40
  150.72        2964.75           1411       67448.00    296799.00
  150.75        2965.00           1414       72102.00    317490.50
  150.78        2965.25           1418       78582.00    346346.20
  150.81        2965.50           1421       82785.00    365091.00
  150.84        2965.75           1424       87395.00    385677.10
  150.87        2966.00           1428       93813.00    414382.30
  150.89        2966.25           1431       97756.00    432044.20
  150.92        2966.50           1435      101058.00    446850.30
  150.95        2966.75           1438      102073.00    451404.40
  150.98        2967.00           1441      102176.00    451866.60
  151.01        2967.25           1445      102215.00    452041.60
  151.04        2967.50           1448      101592.00    449246.10
  151.07        2967.75           1452      100177.00    442898.50
  151.09        2968.00           1455       97414.00    430511.50
  151.13        2968.25           1458       93642.00    413616.80
  151.16        2968.50           1462       87623.00    386695.90
  151.19        2968.75           1465       83084.00    366425.40
  151.21        2969.00           1469       76398.00    336614.80
  151.25        2969.25           1472       71320.00    314011.80
  151.27        2969.50           1475       66128.00    290935.40
  151.30        2969.75           1479       59841.00    263037.80
  151.34        2970.00           1482       55306.00    242945.50
  151.36        2970.25           1485       50766.00    222857.00
  151.39        2970.50           1489       44489.00    195125.20
  151.42        2970.75           1492       39954.00    175120.30
  151.45        2971.00           1496       33941.00    148635.10
  151.48        2971.25           1499       29419.00    128746.90
  151.51        2971.50           1502       24430.00    106834.10
  151.54        2971.75           1506       18052.00     78865.31
  151.57        2972.00           1509       13452.00     58724.47
  151.60        2972.25           1513        7400.00     32265.65
  151.63        2972.50           1516        3954.00     17220.04
  151.66        2972.75           1519        1409.00      6117.59
  151.69        2973.00           1523         295.00      1260.29
  151.72        2973.25           1526         155.00       649.97
  151.75        2973.50           1530         111.00       458.16
  151.77        2973.75           1533          94.00       384.05
  151.80        2974.00           1536          75.00       301.22
  151.83        2974.25           1540          62.00       244.55
  151.86        2974.50           1543          59.00       231.48
  151.89        2974.75           1547          55.00       214.04
  151.92        2975.00           1550          62.00       244.55
  151.95        2975.25           1553          48.00       183.52
  151.98        2975.50           1557          44.00       166.09
  152.01        2975.75           1560          50.00       192.24
  152.04        2976.00           1564          48.00       183.52
  152.06        2976.25           1567          51.00       196.60
  152.09        2976.50           1570          51.00       196.60
  152.12        2976.75           1574          42.00       157.37
  152.15        2977.00           1577          48.00       183.52
  152.18        2977.25           1581          47.00       179.16
  152.21        2977.50           1584          42.00       157.37
  152.24        2977.75           1587          48.00       183.52
  152.27        2978.00           1591          50.00       192.24
  152.30        2978.25           1594          46.00       174.80
  152.33        2978.50           1598          50.00       192.24
  152.35        2978.75           1601          50.00       192.24
  152.38        2979.00           1604          47.00       179.16
  152.41        2979.25           1608          53.00       205.32
  152.44        2979.50           1611          47.00       179.16
  152.47        2979.75           1614          40.00       148.65
  152.50        2980.00           1618          39.00       144.29
  152.53        2980.25           1621          40.00       148.65
  152.55        2980.50           1625          47.00       179.16
  152.58        2980.75           1628          40.00       148.65
  152.62        2981.00           1631          44.00       166.09
  152.64        2981.25           1635          46.00       174.80
  152.67        2981.50           1638          41.00       153.01
  152.71        2981.75           1642          46.00       174.80
  152.73        2982.00           1645          47.00       179.16
  152.76        2982.25           1648          42.00       157.37
  152.79        2982.50           1652          41.00       153.01
  152.82        2982.75           1655          44.00       166.09
  152.85        2983.00           1659          45.00       170.45
  152.87        2983.25           1662          41.00       153.01
  152.91        2983.50           1666          45.00       170.45
  152.93        2983.75           1669          39.00       144.29
  152.96        2984.00           1672          47.00       179.16
HS scan finished at 02:33:20
end
