************************************************************
  HS Scan of (1) Internal mercury lamp
************************************************************
Integration time is 0.2294 seconds per sample
dh070717El Arenosillo 37.1 6.73 3pr1000
************************************************************
Dead Time -------------------------  3.2E-08 
Number of Cycles Used -------------  4 
Starting Wavelength (Angstroms) ---  2950 
Final Wavelength (Angstoms) -------  2984 
Wavelength Increment (Angstroms) --  .25 
Filter Wheel #1 Position ---------- (1) Ground quartz diffuser (ND=2.32)
Filter Wheel #2 Position ---------- (1) Neutral Density 0.494



************************************************************
HS scan start time = 01:32:14
Dark Count =  .6 


Time (GMT)  Wavelength (Ang)  Step Number  Raw Counts  Counts/Second

   92.86        2950.00           1211         102.00       442.03
   93.08        2950.25           1215          97.00       420.23
   93.11        2950.50           1218         121.00       524.86
   93.13        2950.75           1222          92.00       398.44
   93.17        2951.00           1225         103.00       446.39
   93.20        2951.25           1228          98.00       424.59
   93.22        2951.50           1232         104.00       450.75
   93.25        2951.75           1235         107.00       463.83
   93.28        2952.00           1238         100.00       433.31
   93.31        2952.25           1242         124.00       537.93
   93.34        2952.50           1245         100.00       433.31
   93.37        2952.75           1249         113.00       489.98
   93.40        2953.00           1252          99.00       428.95
   93.42        2953.25           1255          99.00       428.95
   93.45        2953.50           1259         135.00       585.89
   93.48        2953.75           1262         100.00       433.31
   93.51        2954.00           1265         115.00       498.70
   93.54        2954.25           1269         125.00       542.29
   93.57        2954.50           1272         114.00       494.34
   93.60        2954.75           1276         101.00       437.67
   93.62        2955.00           1279         124.00       537.93
   93.65        2955.25           1282          99.00       428.95
   93.69        2955.50           1286         107.00       463.83
   93.71        2955.75           1289         120.00       520.50
   93.74        2956.00           1293         114.00       494.34
   93.77        2956.25           1296         105.00       455.11
   93.80        2956.50           1299         100.00       433.31
   93.83        2956.75           1303         120.00       520.50
   93.85        2957.00           1306         118.00       511.78
   93.89        2957.25           1309         114.00       494.34
   93.92        2957.50           1313         101.00       437.67
   93.94        2957.75           1316         129.00       559.73
   93.98        2958.00           1320         109.00       472.54
   94.00        2958.25           1323         125.00       542.29
   94.03        2958.50           1326         103.00       446.39
   94.06        2958.75           1330         135.00       585.89
   94.09        2959.00           1333         106.00       459.47
   94.12        2959.25           1336         122.00       529.22
   94.14        2959.50           1340         142.00       616.40
   94.18        2959.75           1343         163.00       707.95
   94.21        2960.00           1347         189.00       821.29
   94.23        2960.25           1350         250.00      1087.22
   94.26        2960.50           1353         310.00      1348.79
   94.29        2960.75           1357         398.00      1732.44
   94.32        2961.00           1360         515.00      2242.53
   94.35        2961.25           1364        1366.00      5953.18
   94.38        2961.50           1367        3831.00     16706.40
   94.41        2961.75           1370       10753.00     46942.31
   94.44        2962.00           1374       27112.00    118633.50
   94.46        2962.25           1377       40370.00    176977.60
   94.50        2962.50           1380       53081.00    233120.60
   94.52        2962.75           1384       69546.00    306146.70
   94.55        2963.00           1387       82972.00    365949.20
   94.58        2963.25           1391       99724.00    440890.70
   94.61        2963.50           1394      111397.00    493325.70
   94.64        2963.75           1397      123675.00    548670.40
   94.66        2964.00           1401      140486.00    624770.50
   94.70        2964.25           1404      153371.00    683352.80
   94.73        2964.50           1408      170349.00    760885.00
   94.75        2964.75           1411      182796.00    817974.20
   94.79        2965.00           1414      195332.00    875686.10
   94.82        2965.25           1418      212088.00    953164.80
   94.84        2965.50           1421      219849.00    989183.90
   94.87        2965.75           1424      236417.00   1066360.00
   94.91        2966.00           1428      252489.00   1141598.00
   94.93        2966.25           1431      263425.00   1193005.00
   94.96        2966.50           1435      272795.00   1237188.00
   94.99        2966.75           1438      274748.00   1246414.00
   95.02        2967.00           1441      275393.00   1249461.00
   95.05        2967.25           1445      275547.00   1250189.00
   95.08        2967.50           1448      274092.00   1243314.00
   95.11        2967.75           1452      271822.00   1232594.00
   95.14        2968.00           1455      265201.00   1201370.00
   95.16        2968.25           1458      253533.00   1146498.00
   95.20        2968.50           1462      236655.00   1067472.00
   95.22        2968.75           1465      223116.00   1004371.00
   95.25        2969.00           1469      206357.00    926621.10
   95.28        2969.25           1472      194403.00    871401.80
   95.31        2969.50           1475      181996.00    814298.50
   95.34        2969.75           1479      164981.00    736329.30
   95.37        2970.00           1482      152402.00    678939.60
   95.40        2970.25           1485      140868.00    626504.10
   95.43        2970.50           1489      124370.00    551809.10
   95.46        2970.75           1492      112158.00    496750.30
   95.49        2971.00           1496       94843.00    419017.70
   95.52        2971.25           1499       81654.00    360068.30
   95.55        2971.50           1502       68323.00    300710.70
   95.58        2971.75           1506       50978.00    223817.90
   95.61        2972.00           1509       38677.00    169515.10
   95.64        2972.25           1513       22108.00     96669.12
   95.66        2972.50           1516       11560.00     50471.17
   95.69        2972.75           1519        4408.00     19224.55
   95.72        2973.00           1523        1022.00      4453.12
   95.75        2973.25           1526         564.00      2456.17
   95.78        2973.50           1530         431.00      1876.31
   95.81        2973.75           1533         309.00      1344.43
   95.84        2974.00           1536         275.00      1196.21
   95.86        2974.25           1540         203.00       882.33
   95.89        2974.50           1543         172.00       747.18
   95.92        2974.75           1547         149.00       646.92
   95.95        2975.00           1550         154.00       668.72
   95.98        2975.25           1553         122.00       529.22
   96.01        2975.50           1557         124.00       537.93
   96.04        2975.75           1560         122.00       529.22
   96.06        2976.00           1564         131.00       568.45
   96.09        2976.25           1567         131.00       568.45
   96.13        2976.50           1570         152.00       660.00
   96.15        2976.75           1574         132.00       572.81
   96.18        2977.00           1577         121.00       524.86
   96.21        2977.25           1581         126.00       546.65
   96.24        2977.50           1584         132.00       572.81
   96.27        2977.75           1587         116.00       503.06
   96.29        2978.00           1591         137.00       594.61
   96.33        2978.25           1594         115.00       498.70
   96.35        2978.50           1598         155.00       673.07
   96.38        2978.75           1601         151.00       655.64
   96.41        2979.00           1604         117.00       507.42
   96.44        2979.25           1608         140.00       607.68
   96.47        2979.50           1611         142.00       616.40
   96.49        2979.75           1614         119.00       516.14
   96.53        2980.00           1618         123.00       533.57
   96.55        2980.25           1621         119.00       516.14
   96.58        2980.50           1625         141.00       612.04
   96.61        2980.75           1628         128.00       555.37
   96.64        2981.00           1631         114.00       494.34
   96.67        2981.25           1635         138.00       598.97
   96.69        2981.50           1638         126.00       546.65
   96.73        2981.75           1642         119.00       516.14
   96.75        2982.00           1645         104.00       450.75
   96.78        2982.25           1648         161.00       699.23
   96.82        2982.50           1652         123.00       533.57
   96.84        2982.75           1655         116.00       503.06
   96.87        2983.00           1659         123.00       533.57
   96.89        2983.25           1662         116.00       503.06
   96.93        2983.50           1666         110.00       476.90
   96.96        2983.75           1669         153.00       664.36
   96.98        2984.00           1672         133.00       577.17
HS scan finished at 01:37:22
end
