************************************************************
  HS Scan of (1) Internal mercury lamp
************************************************************
Integration time is 0.2294 seconds per sample
dh070718El Arenosillo 37.1 6.73 3pr1000
************************************************************
Dead Time -------------------------  3.2E-08 
Number of Cycles Used -------------  4 
Starting Wavelength (Angstroms) ---  2950 
Final Wavelength (Angstoms) -------  2984 
Wavelength Increment (Angstroms) --  .25 
Filter Wheel #1 Position ---------- (1) Ground quartz diffuser (ND=2.32)
Filter Wheel #2 Position ---------- (1) Neutral Density 0.494



************************************************************
HS scan start time = 01:30:17
Dark Count =  .7 


Time (GMT)  Wavelength (Ang)  Step Number  Raw Counts  Counts/Second

   90.91        2950.00           1211          43.00       184.40
   91.13        2950.25           1215          50.00       214.91
   91.15        2950.50           1218          52.00       223.63
   91.18        2950.75           1222          49.00       210.55
   91.21        2951.00           1225          59.00       254.14
   91.24        2951.25           1228          52.00       223.63
   91.27        2951.50           1232          45.00       193.11
   91.29        2951.75           1235          49.00       210.55
   91.32        2952.00           1238          52.00       223.63
   91.35        2952.25           1242          56.00       241.07
   91.38        2952.50           1245          58.00       249.78
   91.41        2952.75           1249          49.00       210.55
   91.44        2953.00           1252          45.00       193.11
   91.47        2953.25           1255          61.00       262.86
   91.50        2953.50           1259          47.00       201.83
   91.52        2953.75           1262          56.00       241.07
   91.56        2954.00           1265          56.00       241.07
   91.59        2954.25           1269          53.00       227.99
   91.61        2954.50           1272          52.00       223.63
   91.64        2954.75           1276          48.00       206.19
   91.67        2955.00           1279          60.00       258.50
   91.70        2955.25           1282          48.00       206.19
   91.73        2955.50           1286          56.00       241.07
   91.76        2955.75           1289          51.00       219.27
   91.79        2956.00           1293          54.00       232.35
   91.82        2956.25           1296          56.00       241.07
   91.84        2956.50           1299          56.00       241.07
   91.88        2956.75           1303          52.00       223.63
   91.90        2957.00           1306          48.00       206.19
   91.93        2957.25           1309          55.00       236.71
   91.96        2957.50           1313          51.00       219.27
   91.99        2957.75           1316          52.00       223.63
   92.02        2958.00           1320          53.00       227.99
   92.05        2958.25           1323          57.00       245.42
   92.08        2958.50           1326          62.00       267.22
   92.11        2958.75           1330          62.00       267.22
   92.13        2959.00           1333          63.00       271.58
   92.16        2959.25           1336          72.00       310.81
   92.19        2959.50           1340          77.00       332.61
   92.22        2959.75           1343          92.00       398.00
   92.25        2960.00           1347         127.00       550.58
   92.27        2960.25           1350         144.00       624.69
   92.31        2960.50           1353         172.00       746.75
   92.34        2960.75           1357         197.00       855.73
   92.36        2961.00           1360         271.00      1178.34
   92.39        2961.25           1364         565.00      2460.09
   92.43        2961.50           1367        1765.00      7692.83
   92.45        2961.75           1370        4866.00     21223.21
   92.48        2962.00           1374       12487.00     54525.31
   92.51        2962.25           1377       19637.00     85833.96
   92.54        2962.50           1380       26933.00    117846.80
   92.57        2962.75           1384       37554.00    164566.60
   92.60        2963.00           1387       44246.00    194075.60
   92.63        2963.25           1391       53195.00    233624.60
   92.66        2963.50           1394       61078.00    268545.90
   92.69        2963.75           1397       67989.00    299226.00
   92.72        2964.00           1401       77328.00    340781.00
   92.75        2964.25           1404       84553.00    373006.00
   92.78        2964.50           1408       94560.00    417750.00
   92.81        2964.75           1411      101822.00    450301.40
   92.84        2965.00           1414      109668.00    485547.40
   92.87        2965.25           1418      119259.00    528741.40
   92.90        2965.50           1421      126122.00    559723.70
   92.92        2965.75           1424      132985.00    590768.30
   92.96        2966.00           1428      142001.00    631646.60
   92.98        2966.25           1431      148706.00    662117.00
   93.01        2966.50           1435      155333.00    692292.30
   93.04        2966.75           1438      157902.00    704005.70
   93.07        2967.00           1441      158886.00    708494.60
   93.10        2967.25           1445      158830.00    708239.10
   93.12        2967.50           1448      158912.00    708613.30
   93.15        2967.75           1452      156806.00    699007.30
   93.19        2968.00           1455      152631.00    679982.00
   93.21        2968.25           1458      146641.00    652726.40
   93.24        2968.50           1462      137456.00    611026.10
   93.27        2968.75           1465      130630.00    580108.50
   93.30        2969.00           1469      121907.00    540688.30
   93.33        2969.25           1472      114363.00    506676.80
   93.36        2969.50           1475      106891.00    473063.30
   93.39        2969.75           1479       97702.00    431825.50
   93.42        2970.00           1482       90747.00    400685.90
   93.45        2970.25           1485       83862.00    369921.10
   93.47        2970.50           1489       74003.00    325973.30
   93.51        2970.75           1492       66736.00    293659.00
   93.54        2971.00           1496       57652.00    253359.20
   93.56        2971.25           1499       50582.00    222066.40
   93.60        2971.50           1502       42993.00    188546.10
   93.63        2971.75           1506       33362.00    146110.10
   93.65        2972.00           1509       26166.00    114478.30
   93.68        2972.25           1513       16783.00     73329.25
   93.71        2972.50           1516        9592.00     41866.43
   93.74        2972.75           1519        3995.00     17421.66
   93.77        2973.00           1523         725.00      3157.69
   93.79        2973.25           1526         290.00      1261.17
   93.83        2973.50           1530         190.00       825.22
   93.85        2973.75           1533         149.00       646.48
   93.88        2974.00           1536         113.00       489.55
   93.91        2974.25           1540         116.00       502.62
   93.94        2974.50           1543         104.00       450.31
   93.97        2974.75           1547          80.00       345.69
   93.99        2975.00           1550          65.00       280.30
   94.02        2975.25           1553          69.00       297.74
   94.05        2975.50           1557          66.00       284.66
   94.08        2975.75           1560          63.00       271.58
   94.11        2976.00           1564          59.00       254.14
   94.14        2976.25           1567          62.00       267.22
   94.17        2976.50           1570          55.00       236.71
   94.19        2976.75           1574          63.00       271.58
   94.22        2977.00           1577          69.00       297.74
   94.26        2977.25           1581          67.00       289.02
   94.28        2977.50           1584          59.00       254.14
   94.31        2977.75           1587          65.00       280.30
   94.33        2978.00           1591          67.00       289.02
   94.37        2978.25           1594          57.00       245.42
   94.40        2978.50           1598          61.00       262.86
   94.42        2978.75           1601          60.00       258.50
   94.45        2979.00           1604          62.00       267.22
   94.48        2979.25           1608          62.00       267.22
   94.51        2979.50           1611          58.00       249.78
   94.54        2979.75           1614          65.00       280.30
   94.57        2980.00           1618          68.00       293.38
   94.60        2980.25           1621          63.00       271.58
   94.62        2980.50           1625          61.00       262.86
   94.65        2980.75           1628          54.00       232.35
   94.68        2981.00           1631          57.00       245.42
   94.71        2981.25           1635          51.00       219.27
   94.74        2981.50           1638          66.00       284.66
   94.76        2981.75           1642          64.00       275.94
   94.80        2982.00           1645          54.00       232.35
   94.83        2982.25           1648          62.00       267.22
   94.85        2982.50           1652          63.00       271.58
   94.88        2982.75           1655          52.00       223.63
   94.91        2983.00           1659          63.00       271.58
   94.94        2983.25           1662          63.00       271.58
   94.97        2983.50           1666          57.00       245.42
   95.00        2983.75           1669          58.00       249.78
   95.03        2984.00           1672          54.00       232.35
HS scan finished at 01:35:24
end
