************************************************************
  HS Scan of (1) Internal mercury lamp
************************************************************
Integration time is 0.2294 seconds per sample
dh300617El Arenosillo 37.1 6.73 2.88pr1000
************************************************************
Dead Time -------------------------  3.2E-08 
Number of Cycles Used -------------  4 
Starting Wavelength (Angstroms) ---  2950 
Final Wavelength (Angstoms) -------  2984 
Wavelength Increment (Angstroms) --  .25 
Filter Wheel #1 Position ---------- (1) Ground quartz diffuser (ND=2.32)
Filter Wheel #2 Position ---------- (1) Neutral Density 0.494



************************************************************
HS scan start time = 01:30:38
Dark Count =  .5 


Time (GMT)  Wavelength (Ang)  Step Number  Raw Counts  Counts/Second

   91.26        2950.00           1211         121.00       525.29
   91.48        2950.25           1215         125.00       542.73
   91.51        2950.50           1218         122.00       529.65
   91.53        2950.75           1222         115.00       499.14
   91.56        2951.00           1225         134.00       581.96
   91.60        2951.25           1228         112.00       486.06
   91.62        2951.50           1232         122.00       529.65
   91.65        2951.75           1235         107.00       464.26
   91.68        2952.00           1238         157.00       682.23
   91.71        2952.25           1242         129.00       560.17
   91.74        2952.50           1245         109.00       472.98
   91.76        2952.75           1249         104.00       451.18
   91.80        2953.00           1252         116.00       503.50
   91.83        2953.25           1255         110.00       477.34
   91.85        2953.50           1259         112.00       486.06
   91.88        2953.75           1262         119.00       516.57
   91.91        2954.00           1265         105.00       455.54
   91.94        2954.25           1269         126.00       547.09
   91.97        2954.50           1272         119.00       516.57
   92.00        2954.75           1276         136.00       590.68
   92.03        2955.00           1279         102.00       442.46
   92.06        2955.25           1282         117.00       507.85
   92.08        2955.50           1286         107.00       464.26
   92.12        2955.75           1289         118.00       512.21
   92.14        2956.00           1293         121.00       525.29
   92.17        2956.25           1296         124.00       538.37
   92.20        2956.50           1299         130.00       564.53
   92.23        2956.75           1303         107.00       464.26
   92.26        2957.00           1306         173.00       751.98
   92.28        2957.25           1309         127.00       551.45
   92.31        2957.50           1313         142.00       616.84
   92.35        2957.75           1316         134.00       581.96
   92.37        2958.00           1320         113.00       490.42
   92.40        2958.25           1323         114.00       494.78
   92.43        2958.50           1326         112.00       486.06
   92.46        2958.75           1330         133.00       577.60
   92.49        2959.00           1333         133.00       577.60
   92.51        2959.25           1336         159.00       690.95
   92.55        2959.50           1340         143.00       621.20
   92.57        2959.75           1343         174.00       756.34
   92.60        2960.00           1347         203.00       882.76
   92.63        2960.25           1350         255.00      1109.46
   92.66        2960.50           1353         372.00      1619.53
   92.69        2960.75           1357         435.00      1894.19
   92.71        2961.00           1360         757.00      3298.08
   92.74        2961.25           1364        2612.00     11388.20
   92.77        2961.50           1367        7262.00     31686.43
   92.80        2961.75           1370       16376.00     71547.68
   92.83        2962.00           1374       31258.00    136855.70
   92.86        2962.25           1377       43423.00    190444.40
   92.89        2962.50           1380       55850.00    245378.20
   92.91        2962.75           1384       72617.00    319805.80
   92.94        2963.00           1387       84997.00    374989.50
   92.98        2963.25           1391      103314.00    456998.50
   93.00        2963.50           1394      115343.00    511091.70
   93.03        2963.75           1397      128669.00    571238.70
   93.06        2964.00           1401      146251.00    650954.40
   93.09        2964.25           1404      157246.00    701014.70
   93.12        2964.50           1408      175025.00    782307.50
   93.15        2964.75           1411      187527.00    839729.30
   93.18        2965.00           1414      199659.00    895657.00
   93.21        2965.25           1418      216499.00    973626.50
   93.24        2965.50           1421      228891.00   1031255.00
   93.27        2965.75           1424      240898.00   1087300.00
   93.30        2966.00           1428      255085.00   1153786.00
   93.33        2966.25           1431      263785.00   1194701.00
   93.35        2966.50           1435      268973.00   1219151.00
   93.38        2966.75           1438      270362.00   1225704.00
   93.41        2967.00           1441      270667.00   1227143.00
   93.44        2967.25           1445      270282.00   1225327.00
   93.47        2967.50           1448      269013.00   1219340.00
   93.50        2967.75           1452      261907.00   1185860.00
   93.53        2968.00           1455      250918.00   1134228.00
   93.55        2968.25           1458      240464.00   1085271.00
   93.58        2968.50           1462      226466.00   1019961.00
   93.61        2968.75           1465      214935.00    966368.50
   93.64        2969.00           1469      200293.00    898585.40
   93.67        2969.25           1472      187754.00    840773.90
   93.69        2969.50           1475      175364.00    783861.70
   93.73        2969.75           1479      159539.00    711475.30
   93.76        2970.00           1482      146260.00    650995.30
   93.78        2970.25           1485      133414.00    592711.80
   93.81        2970.50           1489      117098.00    518999.60
   93.85        2970.75           1492      104800.00    463670.70
   93.87        2971.00           1496       88878.00    392329.40
   93.90        2971.25           1499       76326.00    336318.10
   93.94        2971.50           1502       64189.00    282350.00
   93.96        2971.75           1506       47883.00    210137.60
   93.99        2972.00           1509       35559.00    155781.20
   94.02        2972.25           1513       19599.00     85668.28
   94.05        2972.50           1516        9325.00     40700.32
   94.08        2972.75           1519        2925.00     12753.68
   94.10        2973.00           1523         749.00      3263.20
   94.13        2973.25           1526         516.00      2247.33
   94.16        2973.50           1530         394.00      1715.44
   94.19        2973.75           1533         326.00      1418.98
   94.22        2974.00           1536         268.00      1166.13
   94.25        2974.25           1540         243.00      1057.14
   94.28        2974.50           1543         179.00       778.14
   94.31        2974.75           1547         165.00       717.10
   94.33        2975.00           1550         143.00       621.20
   94.37        2975.25           1553         141.00       612.48
   94.39        2975.50           1557         132.00       573.25
   94.42        2975.75           1560         134.00       581.96
   94.44        2976.00           1564         131.00       568.89
   94.48        2976.25           1567         145.00       629.92
   94.51        2976.50           1570         150.00       651.71
   94.53        2976.75           1574         140.00       608.12
   94.56        2977.00           1577         127.00       551.45
   94.59        2977.25           1581         132.00       573.25
   94.61        2977.50           1584         138.00       599.40
   94.64        2977.75           1587         136.00       590.68
   94.67        2978.00           1591         128.00       555.81
   94.70        2978.25           1594         161.00       699.67
   94.72        2978.50           1598         134.00       581.96
   94.75        2978.75           1601         136.00       590.68
   94.78        2979.00           1604         140.00       608.12
   94.81        2979.25           1608         161.00       699.67
   94.84        2979.50           1611         138.00       599.40
   94.86        2979.75           1614         126.00       547.09
   94.90        2980.00           1618         140.00       608.12
   94.93        2980.25           1621         136.00       590.68
   94.95        2980.50           1625         131.00       568.89
   94.98        2980.75           1628         161.00       699.67
   95.01        2981.00           1631         126.00       547.09
   95.04        2981.25           1635         136.00       590.68
   95.07        2981.50           1638         138.00       599.40
   95.10        2981.75           1642         126.00       547.09
   95.13        2982.00           1645         123.00       534.01
   95.15        2982.25           1648         117.00       507.85
   95.18        2982.50           1652         127.00       551.45
   95.21        2982.75           1655         140.00       608.12
   95.24        2983.00           1659         133.00       577.60
   95.27        2983.25           1662         143.00       621.20
   95.30        2983.50           1666         122.00       529.65
   95.33        2983.75           1669         122.00       529.65
   95.35        2984.00           1672         119.00       516.57
HS scan finished at 01:35:43
end
