************************************************************
  HS Scan of (1) Internal mercury lamp
************************************************************
Integration time is 0.2294 seconds per sample
dh300618El Arenosillo 37.1 6.73 3pr1000
************************************************************
Dead Time -------------------------  3.2E-08 
Number of Cycles Used -------------  4 
Starting Wavelength (Angstroms) ---  2950 
Final Wavelength (Angstoms) -------  2984 
Wavelength Increment (Angstroms) --  .25 
Filter Wheel #1 Position ---------- (1) Ground quartz diffuser (ND=2.32)
Filter Wheel #2 Position ---------- (1) Neutral Density 0.494



************************************************************
HS scan start time = 01:29:02
Dark Count =  .6 


Time (GMT)  Wavelength (Ang)  Step Number  Raw Counts  Counts/Second

   89.65        2950.00           1211          55.00       237.14
   89.87        2950.25           1215          51.00       219.71
   89.90        2950.50           1218          54.00       232.78
   89.92        2950.75           1222          51.00       219.71
   89.96        2951.00           1225          49.00       210.99
   89.99        2951.25           1228          50.00       215.35
   90.01        2951.50           1232          53.00       228.42
   90.05        2951.75           1235          60.00       258.94
   90.08        2952.00           1238          58.00       250.22
   90.10        2952.25           1242          58.00       250.22
   90.14        2952.50           1245          54.00       232.78
   90.16        2952.75           1249          50.00       215.35
   90.19        2953.00           1252          54.00       232.78
   90.22        2953.25           1255          56.00       241.50
   90.25        2953.50           1259          52.00       224.06
   90.28        2953.75           1262          57.00       245.86
   90.30        2954.00           1265          55.00       237.14
   90.34        2954.25           1269          58.00       250.22
   90.37        2954.50           1272          61.00       263.30
   90.39        2954.75           1276          57.00       245.86
   90.43        2955.00           1279          59.00       254.58
   90.45        2955.25           1282          59.00       254.58
   90.48        2955.50           1286          55.00       237.14
   90.51        2955.75           1289          53.00       228.42
   90.54        2956.00           1293          53.00       228.42
   90.57        2956.25           1296          54.00       232.78
   90.60        2956.50           1299          56.00       241.50
   90.63        2956.75           1303          58.00       250.22
   90.66        2957.00           1306          54.00       232.78
   90.68        2957.25           1309          56.00       241.50
   90.72        2957.50           1313          59.00       254.58
   90.74        2957.75           1316          56.00       241.50
   90.77        2958.00           1320          63.00       272.02
   90.81        2958.25           1323          51.00       219.71
   90.83        2958.50           1326          60.00       258.94
   90.86        2958.75           1330          61.00       263.30
   90.89        2959.00           1333          70.00       302.53
   90.92        2959.25           1336          78.00       337.41
   90.95        2959.50           1340          89.00       385.36
   90.97        2959.75           1343         107.00       463.83
   91.01        2960.00           1347         125.00       542.29
   91.03        2960.25           1350         149.00       646.92
   91.06        2960.50           1353         179.00       777.70
   91.09        2960.75           1357         240.00      1043.63
   91.12        2961.00           1360         285.00      1239.81
   91.15        2961.25           1364         591.00      2573.88
   91.18        2961.50           1367        1720.00      7497.00
   91.21        2961.75           1370        4528.00     19748.31
   91.23        2962.00           1374       12431.00     54280.79
   91.27        2962.25           1377       19692.00     86075.48
   91.30        2962.50           1380       27535.00    120491.60
   91.32        2962.75           1384       37670.00    165078.10
   91.35        2963.00           1387       45421.00    199263.10
   91.38        2963.25           1391       55286.00    242880.40
   91.41        2963.50           1394       62760.00    276007.70
   91.44        2963.75           1397       70761.00    311549.20
   91.47        2964.00           1401       81252.00    358275.00
   91.50        2964.25           1404       89023.00    392977.10
   91.53        2964.50           1408       99115.00    438159.90
   91.56        2964.75           1411      107454.00    475594.00
   91.58        2965.00           1414       84600.00    373216.30
   91.61        2965.25           1418      125345.00    556213.50
   91.64        2965.50           1421      133625.00    593667.00
   91.67        2965.75           1424      141038.00    627275.60
   91.69        2966.00           1428      150749.00    671413.80
   91.72        2966.25           1431      158019.00    704539.80
   91.75        2966.50           1435      165259.00    737600.00
   91.78        2966.75           1438      168406.00    751992.30
   91.81        2967.00           1441      169823.00    758477.10
   91.84        2967.25           1445      169268.00    755936.80
   91.87        2967.50           1448      169891.00    758788.40
   91.90        2967.75           1452      168382.00    751882.50
   91.93        2968.00           1455      164616.00    734660.90
   91.96        2968.25           1458      158310.00    705867.30
   91.98        2968.50           1462      148676.00    661981.10
   92.02        2968.75           1465      140759.00    626009.50
   92.05        2969.00           1469      129868.00    576661.30
   92.07        2969.25           1472      122962.00    545451.00
   92.10        2969.50           1475      114954.00    509339.00
   92.13        2969.75           1479      104494.00    462296.10
   92.16        2970.00           1482       96878.00    428133.30
   92.19        2970.25           1485       88853.00    392217.10
   92.22        2970.50           1489       78873.00    347666.90
   92.25        2970.75           1492       71599.00    315276.40
   92.28        2971.00           1496       61263.00    269366.80
   92.31        2971.25           1499       53641.00    235598.70
   92.34        2971.50           1502       46168.00    202561.60
   92.37        2971.75           1506       35516.00    155591.40
   92.40        2972.00           1509       28373.00    124173.40
   92.43        2972.25           1513       17979.00     78568.70
   92.45        2972.50           1516       10608.00     46308.33
   92.48        2972.75           1519        4393.00     19159.09
   92.51        2973.00           1523         772.00      3363.05
   92.54        2973.25           1526         301.00      1309.56
   92.57        2973.50           1530         202.00       877.97
   92.60        2973.75           1533         169.00       734.11
   92.63        2974.00           1536         116.00       503.06
   92.65        2974.25           1540         133.00       577.17
   92.69        2974.50           1543          89.00       385.36
   92.72        2974.75           1547          74.00       319.97
   92.74        2975.00           1550          69.00       298.17
   92.77        2975.25           1553          68.00       293.81
   92.80        2975.50           1557          75.00       324.33
   92.83        2975.75           1560          65.00       280.73
   92.86        2976.00           1564          67.00       289.45
   92.89        2976.25           1567          65.00       280.73
   92.92        2976.50           1570          64.00       276.38
   92.94        2976.75           1574          69.00       298.17
   92.98        2977.00           1577          69.00       298.17
   93.00        2977.25           1581          65.00       280.73
   93.03        2977.50           1584          62.00       267.66
   93.06        2977.75           1587          64.00       276.38
   93.09        2978.00           1591          61.00       263.30
   93.12        2978.25           1594          60.00       258.94
   93.14        2978.50           1598          58.00       250.22
   93.17        2978.75           1601          62.00       267.66
   93.20        2979.00           1604          61.00       263.30
   93.22        2979.25           1608          67.00       289.45
   93.26        2979.50           1611          59.00       254.58
   93.28        2979.75           1614          66.00       285.09
   93.31        2980.00           1618          69.00       298.17
   93.34        2980.25           1621          68.00       293.81
   93.37        2980.50           1625          53.00       228.42
   93.40        2980.75           1628          59.00       254.58
   93.43        2981.00           1631          58.00       250.22
   93.46        2981.25           1635          64.00       276.38
   93.48        2981.50           1638          60.00       258.94
   93.51        2981.75           1642          70.00       302.53
   93.54        2982.00           1645          61.00       263.30
   93.56        2982.25           1648          63.00       272.02
   93.59        2982.50           1652          65.00       280.73
   93.62        2982.75           1655          62.00       267.66
   93.65        2983.00           1659          66.00       285.09
   93.68        2983.25           1662          68.00       293.81
   93.71        2983.50           1666          62.00       267.66
   93.74        2983.75           1669          55.00       237.14
   93.76        2984.00           1672          62.00       267.66
HS scan finished at 01:34:08
end
