************************************************************
  HS Scan of (1) Internal mercury lamp
************************************************************
Integration time is 0.2294 seconds per sample
dh140718El Arenosillo 37.1 6.73 2.94pr1000
************************************************************
Dead Time -------------------------  3.2E-08 
Number of Cycles Used -------------  4 
Starting Wavelength (Angstroms) ---  2950 
Final Wavelength (Angstoms) -------  2984 
Wavelength Increment (Angstroms) --  .25 
Filter Wheel #1 Position ---------- (1) Ground quartz diffuser (ND=2.32)
Filter Wheel #2 Position ---------- (1) Neutral Density 0.494



************************************************************
HS scan start time = 01:31:26
Dark Count =  .5 


Time (GMT)  Wavelength (Ang)  Step Number  Raw Counts  Counts/Second

   92.05        2950.00           1211          56.00       241.94
   92.27        2950.25           1215          57.00       246.30
   92.29        2950.50           1218          59.00       255.02
   92.32        2950.75           1222          47.00       202.70
   92.36        2951.00           1225          54.00       233.22
   92.38        2951.25           1228          49.00       211.42
   92.41        2951.50           1232          53.00       228.86
   92.44        2951.75           1235          45.00       193.99
   92.47        2952.00           1238          53.00       228.86
   92.50        2952.25           1242          52.00       224.50
   92.52        2952.50           1245          52.00       224.50
   92.56        2952.75           1249          59.00       255.02
   92.59        2953.00           1252          52.00       224.50
   92.61        2953.25           1255          51.00       220.14
   92.64        2953.50           1259          48.00       207.06
   92.66        2953.75           1262          52.00       224.50
   92.69        2954.00           1265          51.00       220.14
   92.72        2954.25           1269          45.00       193.99
   92.75        2954.50           1272          52.00       224.50
   92.78        2954.75           1276          51.00       220.14
   92.80        2955.00           1279          46.00       198.34
   92.83        2955.25           1282          54.00       233.22
   92.87        2955.50           1286          48.00       207.06
   92.89        2955.75           1289          52.00       224.50
   92.92        2956.00           1293          60.00       259.37
   92.95        2956.25           1296          50.00       215.78
   92.98        2956.50           1299          51.00       220.14
   93.01        2956.75           1303          55.00       237.58
   93.04        2957.00           1306          44.00       189.63
   93.07        2957.25           1309          54.00       233.22
   93.09        2957.50           1313          52.00       224.50
   93.12        2957.75           1316          51.00       220.14
   93.16        2958.00           1320          50.00       215.78
   93.18        2958.25           1323          61.00       263.73
   93.21        2958.50           1326          55.00       237.58
   93.24        2958.75           1330          59.00       255.02
   93.27        2959.00           1333          59.00       255.02
   93.30        2959.25           1336          74.00       320.40
   93.33        2959.50           1340          68.00       294.25
   93.36        2959.75           1343          97.00       420.67
   93.38        2960.00           1347         133.00       577.60
   93.41        2960.25           1350         135.00       586.32
   93.44        2960.50           1353         164.00       712.75
   93.47        2960.75           1357         202.00       878.40
   93.50        2961.00           1360         243.00      1057.14
   93.53        2961.25           1364         553.00      2408.64
   93.56        2961.50           1367        1549.00      6751.68
   93.58        2961.75           1370        4281.00     18670.70
   93.61        2962.00           1374       11379.00     49680.05
   93.64        2962.25           1377       18247.00     79743.34
   93.67        2962.50           1380       25087.00    109741.70
   93.70        2962.75           1384       34881.00    152796.30
   93.73        2963.00           1387       41736.00    183001.90
   93.76        2963.25           1391       50434.00    221412.80
   93.78        2963.50           1394       57790.00    253971.60
   93.82        2963.75           1397       64481.00    283646.20
   93.85        2964.00           1401       73732.00    324768.00
   93.88        2964.25           1404       80334.00    354181.20
   93.90        2964.50           1408       90116.00    397864.70
   93.94        2964.75           1411       97491.00    430880.70
   93.97        2965.00           1414      104541.00    462507.60
   93.99        2965.25           1418      114513.00    507353.20
   94.02        2965.50           1421      121307.00    537981.30
   94.06        2965.75           1424      128202.00    569126.90
   94.08        2966.00           1428      136980.00    608869.10
   94.11        2966.25           1431      143323.00    637650.50
   94.14        2966.50           1435      149116.00    663983.10
   94.17        2966.75           1438      151478.00    674732.80
   94.20        2967.00           1441      152343.00    678671.30
   94.23        2967.25           1445      151898.00    676645.00
   94.26        2967.50           1448      152133.00    677715.00
   94.28        2967.75           1452      150007.00    668037.30
   94.31        2968.00           1455      146073.00    650145.30
   94.34        2968.25           1458      139921.00    622207.20
   94.37        2968.50           1462      131119.00    582322.20
   94.40        2968.75           1465      124328.00    551619.90
   94.43        2969.00           1469      114705.00    508217.90
   94.46        2969.25           1472      108569.00    480606.50
   94.48        2969.50           1475      101881.00    450567.00
   94.51        2969.75           1479       92433.00    408229.70
   94.55        2970.00           1482       85514.00    377298.20
   94.57        2970.25           1485       79114.00    348741.60
   94.60        2970.50           1489       69471.00    305813.80
   94.64        2970.75           1492       62802.00    276194.50
   94.66        2971.00           1496       53188.00    233594.50
   94.69        2971.25           1499       46350.00    203365.80
   94.72        2971.50           1502       39222.00    171917.50
   94.75        2971.75           1506       30341.00    132823.60
   94.78        2972.00           1509       23640.00    103390.80
   94.80        2972.25           1513       14711.00     64257.98
   94.84        2972.50           1516        7976.00     34805.53
   94.86        2972.75           1519        3318.00     14468.34
   94.89        2973.00           1523         540.00      2351.96
   94.92        2973.25           1526         266.00      1157.41
   94.95        2973.50           1530         178.00       773.78
   94.98        2973.75           1533         153.00       664.79
   95.00        2974.00           1536         122.00       529.65
   95.04        2974.25           1540          92.00       398.87
   95.07        2974.50           1543          82.00       355.28
   95.09        2974.75           1547          65.00       281.17
   95.12        2975.00           1550          68.00       294.25
   95.15        2975.25           1553          65.00       281.17
   95.18        2975.50           1557          71.00       307.33
   95.20        2975.75           1560          64.00       276.81
   95.24        2976.00           1564          64.00       276.81
   95.27        2976.25           1567          67.00       289.89
   95.29        2976.50           1570          65.00       281.17
   95.33        2976.75           1574          63.00       272.45
   95.35        2977.00           1577          59.00       255.02
   95.38        2977.25           1581          63.00       272.45
   95.41        2977.50           1584          62.00       268.09
   95.44        2977.75           1587          62.00       268.09
   95.47        2978.00           1591          63.00       272.45
   95.49        2978.25           1594          59.00       255.02
   95.53        2978.50           1598          61.00       263.73
   95.55        2978.75           1601          57.00       246.30
   95.58        2979.00           1604          69.00       298.61
   95.61        2979.25           1608          70.00       302.97
   95.64        2979.50           1611          62.00       268.09
   95.67        2979.75           1614          67.00       289.89
   95.69        2980.00           1618          60.00       259.37
   95.73        2980.25           1621          65.00       281.17
   95.76        2980.50           1625          62.00       268.09
   95.78        2980.75           1628          61.00       263.73
   95.81        2981.00           1631          59.00       255.02
   95.84        2981.25           1635          68.00       294.25
   95.87        2981.50           1638          52.00       224.50
   95.90        2981.75           1642          63.00       272.45
   95.93        2982.00           1645          61.00       263.73
   95.96        2982.25           1648          54.00       233.22
   95.98        2982.50           1652          51.00       220.14
   96.01        2982.75           1655          60.00       259.37
   96.04        2983.00           1659          60.00       259.37
   96.07        2983.25           1662          62.00       268.09
   96.10        2983.50           1666          56.00       241.94
   96.13        2983.75           1669          61.00       263.73
   96.16        2984.00           1672          55.00       237.58
HS scan finished at 01:36:32
end
