************************************************************
  HS Scan of (1) Internal mercury lamp
************************************************************
Integration time is 0.2294 seconds per sample
dh140717El Arenosillo 37.1 6.73 3.25pr1000
************************************************************
Dead Time -------------------------  3.2E-08 
Number of Cycles Used -------------  4 
Starting Wavelength (Angstroms) ---  2950 
Final Wavelength (Angstoms) -------  2984 
Wavelength Increment (Angstroms) --  .25 
Filter Wheel #1 Position ---------- (1) Ground quartz diffuser (ND=2.32)
Filter Wheel #2 Position ---------- (1) Neutral Density 0.494



************************************************************
HS scan start time = 01:31:10
Dark Count =  1.2 


Time (GMT)  Wavelength (Ang)  Step Number  Raw Counts  Counts/Second

   91.79        2950.00           1211          98.00       421.98
   92.01        2950.25           1215          87.00       374.02
   92.03        2950.50           1218          91.00       391.46
   92.06        2950.75           1222          95.00       408.90
   92.10        2951.00           1225          93.00       400.18
   92.12        2951.25           1228         103.00       443.77
   92.15        2951.50           1232          92.00       395.82
   92.18        2951.75           1235         118.00       509.16
   92.21        2952.00           1238          92.00       395.82
   92.24        2952.25           1242          93.00       400.18
   92.26        2952.50           1245          96.00       413.26
   92.30        2952.75           1249          91.00       391.46
   92.33        2953.00           1252          85.00       365.31
   92.35        2953.25           1255          96.00       413.26
   92.38        2953.50           1259          93.00       400.18
   92.41        2953.75           1262          89.00       382.74
   92.44        2954.00           1265          86.00       369.66
   92.47        2954.25           1269          99.00       426.34
   92.50        2954.50           1272          97.00       417.62
   92.53        2954.75           1276         102.00       439.41
   92.55        2955.00           1279          88.00       378.38
   92.58        2955.25           1282          96.00       413.26
   92.61        2955.50           1286          93.00       400.18
   92.64        2955.75           1289          97.00       417.62
   92.67        2956.00           1293          92.00       395.82
   92.70        2956.25           1296          89.00       382.74
   92.73        2956.50           1299          90.00       387.10
   92.76        2956.75           1303         100.00       430.69
   92.78        2957.00           1306          92.00       395.82
   92.81        2957.25           1309          92.00       395.82
   92.83        2957.50           1313          97.00       417.62
   92.86        2957.75           1316          91.00       391.46
   92.90        2958.00           1320          90.00       387.10
   92.92        2958.25           1323          96.00       413.26
   92.95        2958.50           1326         115.00       496.08
   92.98        2958.75           1330         114.00       491.73
   93.01        2959.00           1333         130.00       561.47
   93.04        2959.25           1336         187.00       809.96
   93.06        2959.50           1340         148.00       639.94
   93.10        2959.75           1343         165.00       714.05
   93.12        2960.00           1347         208.00       901.51
   93.15        2960.25           1350         248.00      1075.89
   93.18        2960.50           1353         311.00      1350.54
   93.21        2960.75           1357         398.00      1729.83
   93.24        2961.00           1360         473.00      2056.80
   93.26        2961.25           1364        1123.00      4890.91
   93.30        2961.50           1367        3138.00     13679.92
   93.33        2961.75           1370        9409.00     41064.38
   93.35        2962.00           1374       25273.00    110555.20
   93.39        2962.25           1377       37976.00    166423.60
   93.41        2962.50           1380       51212.00    224850.00
   93.44        2962.75           1384       70701.00    311279.70
   93.47        2963.00           1387       83727.00    369316.30
   93.50        2963.25           1391      100654.00    445059.00
   93.53        2963.50           1394      114819.00    508728.20
   93.56        2963.75           1397      127885.00    567690.50
   93.59        2964.00           1401      145953.00    649596.70
   93.62        2964.25           1404      159990.00    713530.30
   93.65        2964.50           1408      177748.00    794792.90
   93.68        2964.75           1411      191961.00    860143.00
   93.71        2965.00           1414      205022.00    920441.70
   93.74        2965.25           1418      218162.00    981344.40
   93.77        2965.50           1421      235750.00   1063243.00
   93.80        2965.75           1424      248382.00   1122334.00
   93.83        2966.00           1428      265742.00   1203916.00
   93.86        2966.25           1431      277241.00   1258195.00
   93.88        2966.50           1435      289046.00   1314119.00
   93.92        2966.75           1438      292010.00   1328193.00
   93.94        2967.00           1441      292597.00   1330981.00
   93.97        2967.25           1445      292417.00   1330126.00
   94.00        2967.50           1448      291624.00   1326359.00
   94.03        2967.75           1452      287560.00   1307068.00
   94.06        2968.00           1455      279904.00   1270792.00
   94.09        2968.25           1458      267848.00   1213843.00
   94.12        2968.50           1462      251458.00   1136758.00
   94.15        2968.75           1465      239098.00   1078882.00
   94.18        2969.00           1469      222460.00   1001318.00
   94.21        2969.25           1472      210342.00    945070.30
   94.24        2969.50           1475      196396.00    880591.60
   94.26        2969.75           1479      178597.00    798688.80
   94.29        2970.00           1482      164987.00    736353.90
   94.32        2970.25           1485      151715.00    675808.60
   94.35        2970.50           1489      133807.00    594488.40
   94.38        2970.75           1492      119836.00    531341.60
   94.41        2971.00           1496      103024.00    455693.60
   94.44        2971.25           1499       90190.00    398192.50
   94.46        2971.50           1502       77164.00    340048.10
   94.49        2971.75           1506       60238.00    264818.80
   94.52        2972.00           1509       46435.00    203738.10
   94.55        2972.25           1513       28572.00    125045.20
   94.58        2972.50           1516       15751.00     68807.84
   94.61        2972.75           1519        6132.00     26748.26
   94.64        2973.00           1523        1223.00      5326.98
   94.67        2973.25           1526         577.00      2510.23
   94.70        2973.50           1530         417.00      1812.66
   94.72        2973.75           1533         327.00      1420.29
   94.75        2974.00           1536         279.00      1211.03
   94.77        2974.25           1540         204.00       884.07
   94.81        2974.50           1543         172.00       744.57
   94.84        2974.75           1547         134.00       578.91
   94.86        2975.00           1550         136.00       587.63
   94.89        2975.25           1553         151.00       653.02
   94.92        2975.50           1557         120.00       517.88
   94.95        2975.75           1560         110.00       474.29
   94.98        2976.00           1564         103.00       443.77
   95.01        2976.25           1567         114.00       491.73
   95.04        2976.50           1570         133.00       574.55
   95.06        2976.75           1574         108.00       465.57
   95.10        2977.00           1577         109.00       469.93
   95.12        2977.25           1581         160.00       692.26
   95.15        2977.50           1584         111.00       478.65
   95.18        2977.75           1587         126.00       544.04
   95.21        2978.00           1591         164.00       709.69
   95.24        2978.25           1594         130.00       561.47
   95.26        2978.50           1598         133.00       574.55
   95.30        2978.75           1601         133.00       574.55
   95.33        2979.00           1604         123.00       530.96
   95.35        2979.25           1608         114.00       491.73
   95.38        2979.50           1611         106.00       456.85
   95.41        2979.75           1614         107.00       461.21
   95.44        2980.00           1618         131.00       565.83
   95.47        2980.25           1621         126.00       544.04
   95.50        2980.50           1625         149.00       644.30
   95.53        2980.75           1628         124.00       535.32
   95.55        2981.00           1631         112.00       483.01
   95.58        2981.25           1635         120.00       517.88
   95.61        2981.50           1638         132.00       570.19
   95.64        2981.75           1642         124.00       535.32
   95.67        2982.00           1645         131.00       565.83
   95.70        2982.25           1648         115.00       496.08
   95.73        2982.50           1652         139.00       600.71
   95.75        2982.75           1655         113.00       487.37
   95.78        2983.00           1659         103.00       443.77
   95.81        2983.25           1662         137.00       591.99
   95.84        2983.50           1666          98.00       421.98
   95.87        2983.75           1669         108.00       465.57
   95.90        2984.00           1672         125.00       539.68
HS scan finished at 01:36:16
end
