************************************************************
  HS Scan of (1) Internal mercury lamp
************************************************************
Integration time is 0.2294 seconds per sample
dh210717El Arenosillo 37.1 6.73 2.98pr1000
************************************************************
Dead Time -------------------------  3.2E-08 
Number of Cycles Used -------------  4 
Starting Wavelength (Angstroms) ---  2950 
Final Wavelength (Angstoms) -------  2984 
Wavelength Increment (Angstroms) --  .25 
Filter Wheel #1 Position ---------- (1) Ground quartz diffuser (ND=2.32)
Filter Wheel #2 Position ---------- (1) Neutral Density 0.494



************************************************************
HS scan start time = 01:31:35
Dark Count =  1.1 


Time (GMT)  Wavelength (Ang)  Step Number  Raw Counts  Counts/Second

   92.20        2950.00           1211         101.00       435.49
   92.41        2950.25           1215         111.00       479.08
   92.44        2950.50           1218          91.00       391.90
   92.47        2950.75           1222         102.00       439.85
   92.50        2951.00           1225         117.00       505.24
   92.53        2951.25           1228          99.00       426.77
   92.56        2951.50           1232          99.00       426.77
   92.59        2951.75           1235          92.00       396.26
   92.62        2952.00           1238         104.00       448.57
   92.64        2952.25           1242         103.00       444.21
   92.67        2952.50           1245          91.00       391.90
   92.71        2952.75           1249          97.00       418.05
   92.73        2953.00           1252          92.00       396.26
   92.76        2953.25           1255          99.00       426.77
   92.79        2953.50           1259         105.00       452.93
   92.82        2953.75           1262         107.00       461.65
   92.85        2954.00           1265         101.00       435.49
   92.87        2954.25           1269         102.00       439.85
   92.91        2954.50           1272         124.00       535.75
   92.93        2954.75           1276         118.00       509.60
   92.96        2955.00           1279         109.00       470.36
   92.99        2955.25           1282          97.00       418.05
   93.02        2955.50           1286         100.00       431.13
   93.05        2955.75           1289          96.00       413.69
   93.08        2956.00           1293         113.00       487.80
   93.11        2956.25           1296         118.00       509.60
   93.14        2956.50           1299          98.00       422.41
   93.16        2956.75           1303         105.00       452.93
   93.19        2957.00           1306         100.00       431.13
   93.22        2957.25           1309          95.00       409.33
   93.25        2957.50           1313         111.00       479.08
   93.28        2957.75           1316          95.00       409.33
   93.31        2958.00           1320          92.00       396.26
   93.34        2958.25           1323          90.00       387.54
   93.37        2958.50           1326         101.00       435.49
   93.39        2958.75           1330         105.00       452.93
   93.43        2959.00           1333         133.00       574.99
   93.45        2959.25           1336         136.00       588.07
   93.48        2959.50           1340         133.00       574.99
   93.51        2959.75           1343         152.00       657.82
   93.54        2960.00           1347         184.00       797.32
   93.57        2960.25           1350         216.00       936.82
   93.59        2960.50           1353         269.00      1167.87
   93.63        2960.75           1357         345.00      1499.20
   93.65        2961.00           1360         449.00      1952.61
   93.68        2961.25           1364        1040.00      4529.43
   93.72        2961.50           1367        2822.00     12301.70
   93.74        2961.75           1370        8112.00     35397.09
   93.77        2962.00           1374       20972.00     91684.91
   93.80        2962.25           1377       32479.00    142223.40
   93.83        2962.50           1380       44466.00    195044.90
   93.86        2962.75           1384       60464.00    265821.30
   93.88        2963.00           1387       72708.00    320208.10
   93.92        2963.25           1391       88699.00    391526.50
   93.94        2963.50           1394      100232.00    443166.70
   93.97        2963.75           1397      111970.00    495901.90
   94.00        2964.00           1401      127684.00    566782.10
   94.04        2964.25           1404      139869.00    621968.50
   94.06        2964.50           1408      156173.00    696119.50
   94.09        2964.75           1411      166551.00    743504.80
   94.12        2965.00           1414      178300.00    797326.20
   94.15        2965.25           1418      194860.00    873506.90
   94.18        2965.50           1421      207292.00    930946.20
   94.21        2965.75           1424      218095.00    981033.80
   94.24        2966.00           1428      233109.00   1050918.00
   94.27        2966.25           1431      244401.00   1103687.00
   94.29        2966.50           1435      254140.00   1149346.00
   94.33        2966.75           1438      256520.00   1160525.00
   94.35        2967.00           1441      257123.00   1163358.00
   94.38        2967.25           1445      256733.00   1161525.00
   94.41        2967.50           1448      255958.00   1157884.00
   94.44        2967.75           1452      252090.00   1139724.00
   94.47        2968.00           1455      244883.00   1105944.00
   94.50        2968.25           1458      235330.00   1061283.00
   94.53        2968.50           1462      221207.00    995492.80
   94.56        2968.75           1465      209238.00    939956.80
   94.58        2969.00           1469      193551.00    867471.40
   94.61        2969.25           1472      181879.00    813758.80
   94.64        2969.50           1475      170328.00    760786.50
   94.66        2969.75           1479      154527.00    688617.30
   94.69        2970.00           1482      143562.00    638733.30
   94.73        2970.25           1485      133693.00    593972.60
   94.76        2970.50           1489      118645.00    525970.80
   94.78        2970.75           1492      107360.00    475169.20
   94.81        2971.00           1496       91605.00    404522.20
   94.84        2971.25           1499       79662.00    351182.00
   94.87        2971.50           1502       67856.00    298633.20
   94.89        2971.75           1506       50950.00    223691.90
   94.93        2972.00           1509       38653.00    169407.20
   94.96        2972.25           1513       22740.00     99439.29
   94.98        2972.50           1516       12287.00     53648.70
   95.01        2972.75           1519        4645.00     20256.81
   95.04        2973.00           1523         994.00      4328.85
   95.07        2973.25           1526         526.00      2288.31
   95.10        2973.50           1530         393.00      1708.46
   95.13        2973.75           1533         309.00      1342.25
   95.16        2974.00           1536         246.00      1067.60
   95.18        2974.25           1540         202.00       875.79
   95.22        2974.50           1543         170.00       736.29
   95.24        2974.75           1547         150.00       649.10
   95.27        2975.00           1550         158.00       683.97
   95.30        2975.25           1553         155.00       670.89
   95.33        2975.50           1557         150.00       649.10
   95.36        2975.75           1560         134.00       579.35
   95.38        2976.00           1564         110.00       474.72
   95.42        2976.25           1567         117.00       505.24
   95.45        2976.50           1570         114.00       492.16
   95.47        2976.75           1574         136.00       588.07
   95.50        2977.00           1577         130.00       561.91
   95.53        2977.25           1581         119.00       513.96
   95.56        2977.50           1584         118.00       509.60
   95.59        2977.75           1587         104.00       448.57
   95.62        2978.00           1591         113.00       487.80
   95.65        2978.25           1594         113.00       487.80
   95.67        2978.50           1598         127.00       548.83
   95.70        2978.75           1601         135.00       583.71
   95.73        2979.00           1604         129.00       557.55
   95.76        2979.25           1608         111.00       479.08
   95.79        2979.50           1611         113.00       487.80
   95.82        2979.75           1614         131.00       566.27
   95.85        2980.00           1618         114.00       492.16
   95.88        2980.25           1621         113.00       487.80
   95.90        2980.50           1625         114.00       492.16
   95.94        2980.75           1628         140.00       605.50
   95.96        2981.00           1631         130.00       561.91
   95.99        2981.25           1635         126.00       544.47
   96.02        2981.50           1638         126.00       544.47
   96.05        2981.75           1642         113.00       487.80
   96.08        2982.00           1645         120.00       518.32
   96.10        2982.25           1648         111.00       479.08
   96.14        2982.50           1652         125.00       540.11
   96.16        2982.75           1655         106.00       457.29
   96.19        2983.00           1659         109.00       470.36
   96.23        2983.25           1662         120.00       518.32
   96.25        2983.50           1666         108.00       466.01
   96.28        2983.75           1669         107.00       461.65
   96.31        2984.00           1672         131.00       566.27
HS scan finished at 01:36:41
end
