************************************************************
  HS Scan of (1) Internal mercury lamp
************************************************************
Integration time is 0.2294 seconds per sample
dh040818El Arenosillo 37.1 6.73 3.37pr1000
************************************************************
Dead Time -------------------------  3.2E-08 
Number of Cycles Used -------------  4 
Starting Wavelength (Angstroms) ---  2950 
Final Wavelength (Angstoms) -------  2984 
Wavelength Increment (Angstroms) --  .25 
Filter Wheel #1 Position ---------- (1) Ground quartz diffuser (ND=2.32)
Filter Wheel #2 Position ---------- (1) Neutral Density 0.494



************************************************************
HS scan start time = 01:33:29
Dark Count =  1.6 


Time (GMT)  Wavelength (Ang)  Step Number  Raw Counts  Counts/Second

   94.11        2950.00           1211          47.00       197.91
   94.33        2950.25           1215          43.00       180.47
   94.35        2950.50           1218          43.00       180.47
   94.38        2950.75           1222          47.00       197.91
   94.41        2951.00           1225          46.00       193.55
   94.44        2951.25           1228          47.00       197.91
   94.47        2951.50           1232          44.00       184.83
   94.50        2951.75           1235          46.00       193.55
   94.53        2952.00           1238          41.00       171.75
   94.56        2952.25           1242          44.00       184.83
   94.59        2952.50           1245          41.00       171.75
   94.62        2952.75           1249          40.00       167.39
   94.65        2953.00           1252          46.00       193.55
   94.67        2953.25           1255          41.00       171.75
   94.71        2953.50           1259          42.00       176.11
   94.73        2953.75           1262          43.00       180.47
   94.76        2954.00           1265          45.00       189.19
   94.79        2954.25           1269          45.00       189.19
   94.82        2954.50           1272          51.00       215.35
   94.85        2954.75           1276          47.00       197.91
   94.88        2955.00           1279          39.00       163.03
   94.91        2955.25           1282          46.00       193.55
   94.93        2955.50           1286          43.00       180.47
   94.96        2955.75           1289          45.00       189.19
   95.00        2956.00           1293          47.00       197.91
   95.02        2956.25           1296          39.00       163.03
   95.05        2956.50           1299          45.00       189.19
   95.08        2956.75           1303          48.00       202.27
   95.11        2957.00           1306          46.00       193.55
   95.14        2957.25           1309          46.00       193.55
   95.17        2957.50           1313          47.00       197.91
   95.20        2957.75           1316          44.00       184.83
   95.22        2958.00           1320          47.00       197.91
   95.26        2958.25           1323          42.00       176.11
   95.28        2958.50           1326          47.00       197.91
   95.31        2958.75           1330          58.00       245.86
   95.34        2959.00           1333          50.00       210.99
   95.37        2959.25           1336          59.00       250.22
   95.40        2959.50           1340          71.00       302.53
   95.42        2959.75           1343          87.00       372.28
   95.46        2960.00           1347         141.00       607.68
   95.48        2960.25           1350         145.00       625.12
   95.51        2960.50           1353         156.00       673.07
   95.55        2960.75           1357         194.00       838.73
   95.57        2961.00           1360         235.00      1017.47
   95.60        2961.25           1364         602.00      2617.48
   95.63        2961.50           1367        1847.00      8046.54
   95.66        2961.75           1370        4867.00     21223.65
   95.69        2962.00           1374       11814.00     51577.65
   95.71        2962.25           1377       18359.00     80229.26
   95.74        2962.50           1380       25676.00    112322.80
   95.77        2962.75           1384       34686.00    151933.10
   95.79        2963.00           1387       41510.00    182000.20
   95.83        2963.25           1391       50585.00    222075.60
   95.85        2963.50           1394       58140.00    255517.50
   95.88        2963.75           1397       64904.00    285519.20
   95.92        2964.00           1401       74334.00    327442.70
   95.94        2964.25           1404       81094.00    357565.80
   95.97        2964.50           1408       90284.00    398611.10
   96.01        2964.75           1411       96734.00    427483.70
   96.03        2965.00           1414      103877.00    459521.10
   96.06        2965.25           1418      113564.00    503074.80
   96.09        2965.50           1421      120421.00    533978.80
   96.12        2965.75           1424      128204.00    569131.00
   96.15        2966.00           1428      137504.00    611239.70
   96.18        2966.25           1431      143259.00    637354.80
   96.21        2966.50           1435      149879.00    667449.80
   96.24        2966.75           1438      151976.00    676995.10
   96.26        2967.00           1441      152137.00    677728.20
   96.30        2967.25           1445      152503.00    679395.00
   96.33        2967.50           1448      151826.00    676312.10
   96.35        2967.75           1452      149657.00    666439.60
   96.38        2968.00           1455      145107.00    645750.10
   96.41        2968.25           1458      139871.00    621975.40
   96.44        2968.50           1462      131638.00    584666.20
   96.47        2968.75           1465      124676.00    553186.70
   96.50        2969.00           1469      115653.00    512483.30
   96.53        2969.25           1472      108296.00    479374.20
   96.55        2969.50           1475      101146.00    447264.40
   96.59        2969.75           1479       92331.00    407768.40
   96.62        2970.00           1482       85023.00    375100.60
   96.64        2970.25           1485       78281.00    345023.80
   96.68        2970.50           1489       69561.00    306209.00
   96.70        2970.75           1492       63534.00    279437.90
   96.73        2971.00           1496       54961.00    241437.10
   96.76        2971.25           1499       47569.00    208745.40
   96.80        2971.50           1502       40504.00    177564.00
   96.82        2971.75           1506       31164.00    136437.50
   96.85        2972.00           1509       23705.00    103671.20
   96.88        2972.25           1513       14259.00     62274.81
   96.91        2972.50           1516        7970.00     34774.51
   96.94        2972.75           1519        3064.00     13355.32
   96.97        2973.00           1523         561.00      2438.73
   97.00        2973.25           1526         223.00       965.16
   97.02        2973.50           1530         168.00       725.39
   97.06        2973.75           1533         152.00       655.64
   97.08        2974.00           1536         119.00       511.78
   97.11        2974.25           1540          83.00       354.84
   97.14        2974.50           1543          80.00       341.76
   97.16        2974.75           1547          69.00       293.81
   97.19        2975.00           1550          72.00       306.89
   97.21        2975.25           1553          57.00       241.50
   97.25        2975.50           1557          62.00       263.30
   97.28        2975.75           1560          60.00       254.58
   97.30        2976.00           1564          55.00       232.78
   97.34        2976.25           1567          57.00       241.50
   97.36        2976.50           1570          56.00       237.14
   97.39        2976.75           1574          47.00       197.91
   97.42        2977.00           1577          43.00       180.47
   97.45        2977.25           1581          54.00       228.42
   97.48        2977.50           1584          53.00       224.06
   97.50        2977.75           1587          59.00       250.22
   97.54        2978.00           1591          60.00       254.58
   97.57        2978.25           1594          54.00       228.42
   97.59        2978.50           1598          52.00       219.71
   97.63        2978.75           1601          59.00       250.22
   97.65        2979.00           1604          50.00       210.99
   97.68        2979.25           1608          58.00       245.86
   97.71        2979.50           1611          55.00       232.78
   97.74        2979.75           1614          58.00       245.86
   97.77        2980.00           1618          55.00       232.78
   97.80        2980.25           1621          55.00       232.78
   97.83        2980.50           1625          49.00       206.63
   97.85        2980.75           1628          52.00       219.71
   97.88        2981.00           1631          61.00       258.94
   97.92        2981.25           1635          60.00       254.58
   97.94        2981.50           1638          58.00       245.86
   97.97        2981.75           1642          62.00       263.30
   98.00        2982.00           1645          53.00       224.06
   98.03        2982.25           1648          61.00       258.94
   98.06        2982.50           1652          52.00       219.71
   98.09        2982.75           1655          50.00       210.99
   98.12        2983.00           1659          50.00       210.99
   98.15        2983.25           1662          46.00       193.55
   98.18        2983.50           1666          60.00       254.58
   98.21        2983.75           1669          54.00       228.42
   98.23        2984.00           1672          53.00       224.06
HS scan finished at 01:38:36
end
