************************************************************
  HS Scan of (1) Internal mercury lamp
************************************************************
Integration time is 0.2294 seconds per sample
dh080818El Arenosillo 37.1 6.73 3pr1000
************************************************************
Dead Time -------------------------  3.2E-08 
Number of Cycles Used -------------  4 
Starting Wavelength (Angstroms) ---  2950 
Final Wavelength (Angstoms) -------  2984 
Wavelength Increment (Angstroms) --  .25 
Filter Wheel #1 Position ---------- (1) Ground quartz diffuser (ND=2.32)
Filter Wheel #2 Position ---------- (1) Neutral Density 0.494



************************************************************
HS scan start time = 07:13:21
Dark Count =  .6 


Time (GMT)  Wavelength (Ang)  Step Number  Raw Counts  Counts/Second

  433.97        2950.00           1211          52.00       224.06
  434.19        2950.25           1215          51.00       219.71
  434.21        2950.50           1218          54.00       232.78
  434.24        2950.75           1222          46.00       197.91
  434.27        2951.00           1225          50.00       215.35
  434.30        2951.25           1228          57.00       245.86
  434.33        2951.50           1232          53.00       228.42
  434.36        2951.75           1235          61.00       263.30
  434.39        2952.00           1238          53.00       228.42
  434.41        2952.25           1242          49.00       210.99
  434.44        2952.50           1245          54.00       232.78
  434.47        2952.75           1249          51.00       219.71
  434.49        2953.00           1252          56.00       241.50
  434.52        2953.25           1255          53.00       228.42
  434.55        2953.50           1259          52.00       224.06
  434.58        2953.75           1262          54.00       232.78
  434.61        2954.00           1265          54.00       232.78
  434.64        2954.25           1269          53.00       228.42
  434.67        2954.50           1272          56.00       241.50
  434.70        2954.75           1276          51.00       219.71
  434.73        2955.00           1279          55.00       237.14
  434.76        2955.25           1282          57.00       245.86
  434.78        2955.50           1286          52.00       224.06
  434.81        2955.75           1289          52.00       224.06
  434.84        2956.00           1293          54.00       232.78
  434.87        2956.25           1296          48.00       206.63
  434.90        2956.50           1299          54.00       232.78
  434.93        2956.75           1303          50.00       215.35
  434.96        2957.00           1306          48.00       206.63
  434.98        2957.25           1309          51.00       219.71
  435.02        2957.50           1313          55.00       237.14
  435.05        2957.75           1316          56.00       241.50
  435.07        2958.00           1320          54.00       232.78
  435.10        2958.25           1323          52.00       224.06
  435.13        2958.50           1326          58.00       250.22
  435.16        2958.75           1330          64.00       276.38
  435.19        2959.00           1333          64.00       276.38
  435.22        2959.25           1336          72.00       311.25
  435.25        2959.50           1340          82.00       354.84
  435.27        2959.75           1343          99.00       428.95
  435.31        2960.00           1347         134.00       581.53
  435.33        2960.25           1350         140.00       607.68
  435.36        2960.50           1353         168.00       729.75
  435.39        2960.75           1357         197.00       856.17
  435.42        2961.00           1360         302.00      1313.92
  435.45        2961.25           1364        1274.00      5551.99
  435.48        2961.50           1367        3550.00     15480.20
  435.51        2961.75           1370        7956.00     34717.72
  435.54        2962.00           1374       16384.00     71582.27
  435.56        2962.25           1377       23221.00    101551.80
  435.60        2962.50           1380       29911.00    130932.80
  435.63        2962.75           1384       39014.00    171000.30
  435.65        2963.00           1387       45634.00    200203.50
  435.68        2963.25           1391       53681.00    235775.70
  435.71        2963.50           1394       60138.00    264378.10
  435.74        2963.75           1397       67047.00    295041.00
  435.77        2964.00           1401       76405.00    336669.50
  435.80        2964.25           1404       83387.00    367801.30
  435.83        2964.50           1408       92862.00    410149.20
  435.86        2964.75           1411       99971.00    441998.40
  435.89        2965.00           1414      107440.00    475531.10
  435.92        2965.25           1418      116834.00    517809.30
  435.95        2965.50           1421      123563.00    548164.60
  435.98        2965.75           1424      130133.00    577860.20
  436.01        2966.00           1428      138805.00    617144.10
  436.03        2966.25           1431      143838.00    639989.20
  436.06        2966.50           1435      147820.00    658087.70
  436.09        2966.75           1438      148578.00    661535.20
  436.12        2967.00           1441      148434.00    660880.30
  436.15        2967.25           1445      148530.00    661317.00
  436.18        2967.50           1448      147691.00    657501.10
  436.21        2967.75           1452      143861.00    640093.70
  436.23        2968.00           1455      138610.00    616259.70
  436.27        2968.25           1458      132247.00    587427.40
  436.30        2968.50           1462      123867.00    549537.50
  436.32        2968.75           1465      117041.00    518742.20
  436.35        2969.00           1469      108670.00    481060.20
  436.38        2969.25           1472      102586.00    453730.40
  436.41        2969.50           1475       96311.00    425593.00
  436.43        2969.75           1479       67644.00    297693.40
  436.46        2970.00           1482       81250.00    358266.10
  436.48        2970.25           1485       75328.00    331872.90
  436.51        2970.50           1489       65570.00    288480.80
  436.55        2970.75           1492       59019.00    259417.50
  436.57        2971.00           1496       49902.00    219060.30
  436.60        2971.25           1499       42758.00    187509.70
  436.63        2971.50           1502       36166.00    158453.60
  436.66        2971.75           1506       26733.00    116968.80
  436.69        2972.00           1509       20047.00     87631.62
  436.71        2972.25           1513       11463.00     50046.96
  436.75        2972.50           1516        6144.00     26803.28
  436.78        2972.75           1519        2252.00      9817.38
  436.80        2973.00           1523         415.00      1806.56
  436.84        2973.25           1526         224.00       973.88
  436.86        2973.50           1530         166.00       721.03
  436.89        2973.75           1533         129.00       559.73
  436.92        2974.00           1536         120.00       520.50
  436.95        2974.25           1540          93.00       402.80
  436.98        2974.50           1543          87.00       376.64
  437.00        2974.75           1547          63.00       272.02
  437.04        2975.00           1550          62.00       267.66
  437.06        2975.25           1553          59.00       254.58
  437.09        2975.50           1557          61.00       263.30
  437.13        2975.75           1560          67.00       289.45
  437.15        2976.00           1564          65.00       280.73
  437.18        2976.25           1567          61.00       263.30
  437.21        2976.50           1570          61.00       263.30
  437.24        2976.75           1574          63.00       272.02
  437.27        2977.00           1577          53.00       228.42
  437.29        2977.25           1581          62.00       267.66
  437.33        2977.50           1584          64.00       276.38
  437.35        2977.75           1587          60.00       258.94
  437.38        2978.00           1591          62.00       267.66
  437.41        2978.25           1594          60.00       258.94
  437.44        2978.50           1598          55.00       237.14
  437.47        2978.75           1601          60.00       258.94
  437.49        2979.00           1604          60.00       258.94
  437.53        2979.25           1608          61.00       263.30
  437.55        2979.50           1611          57.00       245.86
  437.58        2979.75           1614          57.00       245.86
  437.61        2980.00           1618          64.00       276.38
  437.64        2980.25           1621          62.00       267.66
  437.67        2980.50           1625          60.00       258.94
  437.70        2980.75           1628          59.00       254.58
  437.73        2981.00           1631          60.00       258.94
  437.75        2981.25           1635          62.00       267.66
  437.78        2981.50           1638          63.00       272.02
  437.82        2981.75           1642          58.00       250.22
  437.84        2982.00           1645          66.00       285.09
  437.87        2982.25           1648          58.00       250.22
  437.90        2982.50           1652          54.00       232.78
  437.93        2982.75           1655          54.00       232.78
  437.96        2983.00           1659          62.00       267.66
  437.99        2983.25           1662          56.00       241.50
  438.02        2983.50           1666          57.00       245.86
  438.04        2983.75           1669          56.00       241.50
  438.07        2984.00           1672          55.00       237.14
HS scan finished at 07:18:27
end
