************************************************************
  HS Scan of (1) Internal mercury lamp
************************************************************
Integration time is 0.2294 seconds per sample
dh110818El Arenosillo 37.1 6.73 3.11pr1000
************************************************************
Dead Time -------------------------  3.2E-08 
Number of Cycles Used -------------  4 
Starting Wavelength (Angstroms) ---  2950 
Final Wavelength (Angstoms) -------  2984 
Wavelength Increment (Angstroms) --  .25 
Filter Wheel #1 Position ---------- (1) Ground quartz diffuser (ND=2.32)
Filter Wheel #2 Position ---------- (1) Neutral Density 0.494



************************************************************
HS scan start time = 01:31:09
Dark Count =  1 


Time (GMT)  Wavelength (Ang)  Step Number  Raw Counts  Counts/Second

   91.77        2950.00           1211          51.00       217.96
   91.98        2950.25           1215          44.00       187.45
   92.01        2950.50           1218          49.00       209.24
   92.04        2950.75           1222          48.00       204.88
   92.07        2951.00           1225          41.00       174.37
   92.10        2951.25           1228          52.00       222.32
   92.13        2951.50           1232          50.00       213.60
   92.16        2951.75           1235          53.00       226.68
   92.19        2952.00           1238          51.00       217.96
   92.22        2952.25           1242          45.00       191.81
   92.24        2952.50           1245          51.00       217.96
   92.28        2952.75           1249          46.00       196.17
   92.30        2953.00           1252          46.00       196.17
   92.33        2953.25           1255          52.00       222.32
   92.37        2953.50           1259          45.00       191.81
   92.39        2953.75           1262          49.00       209.24
   92.41        2954.00           1265          36.00       152.57
   92.44        2954.25           1269          46.00       196.17
   92.47        2954.50           1272          50.00       213.60
   92.50        2954.75           1276          50.00       213.60
   92.53        2955.00           1279          50.00       213.60
   92.55        2955.25           1282          53.00       226.68
   92.59        2955.50           1286          50.00       213.60
   92.61        2955.75           1289          50.00       213.60
   92.64        2956.00           1293          49.00       209.24
   92.68        2956.25           1296          48.00       204.88
   92.70        2956.50           1299          48.00       204.88
   92.73        2956.75           1303          48.00       204.88
   92.76        2957.00           1306          49.00       209.24
   92.79        2957.25           1309          53.00       226.68
   92.82        2957.50           1313          53.00       226.68
   92.85        2957.75           1316          49.00       209.24
   92.88        2958.00           1320          50.00       213.60
   92.92        2958.25           1323          52.00       222.32
   92.94        2958.50           1326          50.00       213.60
   92.97        2958.75           1330          59.00       252.84
   93.00        2959.00           1333          56.00       239.76
   93.03        2959.25           1336          67.00       287.71
   93.06        2959.50           1340          79.00       340.02
   93.09        2959.75           1343          91.00       392.33
   93.12        2960.00           1347         147.00       636.46
   93.15        2960.25           1350         144.00       623.38
   93.18        2960.50           1353         193.00       836.99
   93.21        2960.75           1357         238.00      1033.16
   93.24        2961.00           1360         296.00      1286.02
   93.27        2961.25           1364         900.00      3919.41
   93.30        2961.50           1367        2522.00     10993.41
   93.33        2961.75           1370        6115.00     26674.90
   93.36        2962.00           1374       13813.00     60325.58
   93.39        2962.25           1377       21214.00     92746.52
   93.42        2962.50           1380       28830.00    126179.80
   93.45        2962.75           1384       38896.00    170478.50
   93.48        2963.00           1387       46149.00    202475.90
   93.51        2963.25           1391       56219.00    247010.20
   93.53        2963.50           1394       63709.00    280217.20
   93.57        2963.75           1397       71122.00    313153.00
   93.60        2964.00           1401       81178.00    357943.20
   93.62        2964.25           1404       88913.00    392483.60
   93.66        2964.50           1408       99178.00    438440.60
   93.69        2964.75           1411      106949.00    473322.60
   93.71        2965.00           1414      113960.00    504860.60
   93.75        2965.25           1418      124420.00    552033.10
   93.78        2965.50           1421      131884.00    585782.40
   93.81        2965.75           1424      138399.00    615300.80
   93.84        2966.00           1428      147638.00    657258.20
   93.87        2966.25           1431      153959.00    686029.70
   93.90        2966.50           1435      160673.00    716648.80
   93.93        2966.75           1438      161999.00    722703.20
   93.95        2967.00           1441      162198.00    723612.00
   93.99        2967.25           1445      162445.00    724740.10
   94.01        2967.50           1448      161965.00    722547.90
   94.04        2967.75           1452      159843.00    712860.30
   94.08        2968.00           1455      155478.00    692951.70
   94.10        2968.25           1458      149613.00    666242.10
   94.13        2968.50           1462      141181.00    627922.90
   94.16        2968.75           1465      133910.00    594955.80
   94.19        2969.00           1469      123911.00    549734.40
   94.22        2969.25           1472      116236.00    515112.70
   94.25        2969.50           1475      108443.00    480037.80
   94.28        2969.75           1479       98439.00    435127.60
   94.31        2970.00           1482       90970.00    401682.00
   94.34        2970.25           1485       83027.00    366192.90
   94.37        2970.50           1489       73741.00    324805.70
   94.40        2970.75           1492       66468.00    292467.20
   94.43        2971.00           1496       56134.00    246633.70
   94.46        2971.25           1499       49488.00    217228.40
   94.49        2971.50           1502       42167.00    184900.70
   94.52        2971.75           1506       32222.00    141093.30
   94.55        2972.00           1509       24817.00    108554.30
   94.58        2972.25           1513       15093.00     65927.96
   94.61        2972.50           1516        8462.00     36926.78
   94.64        2972.75           1519        3411.00     14871.94
   94.67        2973.00           1523         656.00      2855.54
   94.69        2973.25           1526         307.00      1333.97
   94.73        2973.50           1530         214.00       928.54
   94.76        2973.75           1533         184.00       797.75
   94.79        2974.00           1536         166.00       719.28
   94.82        2974.25           1540         108.00       466.44
   94.84        2974.50           1543         114.00       492.60
   94.88        2974.75           1547          77.00       331.30
   94.90        2975.00           1550          61.00       261.55
   94.93        2975.25           1553          58.00       248.48
   94.96        2975.50           1557          65.00       278.99
   94.99        2975.75           1560          65.00       278.99
   95.02        2976.00           1564          66.00       283.35
   95.05        2976.25           1567          68.00       292.07
   95.08        2976.50           1570          58.00       248.48
   95.11        2976.75           1574          64.00       274.63
   95.14        2977.00           1577          64.00       274.63
   95.17        2977.25           1581          72.00       309.51
   95.20        2977.50           1584          60.00       257.19
   95.23        2977.75           1587          57.00       244.12
   95.26        2978.00           1591          56.00       239.76
   95.29        2978.25           1594          58.00       248.48
   95.32        2978.50           1598          63.00       270.27
   95.35        2978.75           1601          53.00       226.68
   95.38        2979.00           1604          60.00       257.19
   95.40        2979.25           1608          60.00       257.19
   95.43        2979.50           1611          60.00       257.19
   95.47        2979.75           1614          56.00       239.76
   95.49        2980.00           1618          60.00       257.19
   95.53        2980.25           1621          58.00       248.48
   95.55        2980.50           1625          66.00       283.35
   95.58        2980.75           1628          55.00       235.40
   95.61        2981.00           1631          51.00       217.96
   95.64        2981.25           1635          56.00       239.76
   95.67        2981.50           1638          62.00       265.91
   95.70        2981.75           1642          54.00       231.04
   95.73        2982.00           1645          55.00       235.40
   95.76        2982.25           1648          48.00       204.88
   95.79        2982.50           1652          61.00       261.55
   95.81        2982.75           1655          56.00       239.76
   95.85        2983.00           1659          59.00       252.84
   95.88        2983.25           1662          49.00       209.24
   95.90        2983.50           1666          55.00       235.40
   95.94        2983.75           1669          57.00       244.12
   95.96        2984.00           1672          53.00       226.68
HS scan finished at 01:36:20
end
