************************************************************
  HS Scan of (1) Internal mercury lamp
************************************************************
Integration time is 0.2294 seconds per sample
dh180817El Arenosillo 37.1 6.73 3.13pr1000
************************************************************
Dead Time -------------------------  3.2E-08 
Number of Cycles Used -------------  4 
Starting Wavelength (Angstroms) ---  2950 
Final Wavelength (Angstoms) -------  2984 
Wavelength Increment (Angstroms) --  .25 
Filter Wheel #1 Position ---------- (1) Ground quartz diffuser (ND=2.32)
Filter Wheel #2 Position ---------- (1) Neutral Density 0.494



************************************************************
HS scan start time = 01:28:33
Dark Count =  1.1 


Time (GMT)  Wavelength (Ang)  Step Number  Raw Counts  Counts/Second

   89.16        2950.00           1211          88.00       378.82
   89.38        2950.25           1215          92.00       396.26
   89.41        2950.50           1218          86.00       370.10
   89.44        2950.75           1222          87.00       374.46
   89.47        2951.00           1225         100.00       431.13
   89.50        2951.25           1228          94.00       404.97
   89.52        2951.50           1232          90.00       387.54
   89.55        2951.75           1235          88.00       378.82
   89.58        2952.00           1238          88.00       378.82
   89.61        2952.25           1242          85.00       365.74
   89.64        2952.50           1245          92.00       396.26
   89.67        2952.75           1249          91.00       391.90
   89.70        2953.00           1252          87.00       374.46
   89.72        2953.25           1255          90.00       387.54
   89.75        2953.50           1259          86.00       370.10
   89.78        2953.75           1262          96.00       413.69
   89.81        2954.00           1265          93.00       400.62
   89.84        2954.25           1269          93.00       400.62
   89.87        2954.50           1272          88.00       378.82
   89.90        2954.75           1276          91.00       391.90
   89.92        2955.00           1279          79.00       339.59
   89.95        2955.25           1282          89.00       383.18
   89.98        2955.50           1286         107.00       461.65
   90.01        2955.75           1289          88.00       378.82
   90.04        2956.00           1293          86.00       370.10
   90.07        2956.25           1296          85.00       365.74
   90.09        2956.50           1299          90.00       387.54
   90.12        2956.75           1303          92.00       396.26
   90.15        2957.00           1306          88.00       378.82
   90.18        2957.25           1309          89.00       383.18
   90.21        2957.50           1313          83.00       357.02
   90.23        2957.75           1316          86.00       370.10
   90.26        2958.00           1320          86.00       370.10
   90.30        2958.25           1323          91.00       391.90
   90.32        2958.50           1326          83.00       357.02
   90.35        2958.75           1330         111.00       479.08
   90.38        2959.00           1333          99.00       426.77
   90.41        2959.25           1336         120.00       518.32
   90.44        2959.50           1340         155.00       670.89
   90.46        2959.75           1343         165.00       714.49
   90.50        2960.00           1347         185.00       801.68
   90.52        2960.25           1350         220.00       954.26
   90.55        2960.50           1353         294.00      1276.86
   90.58        2960.75           1357         343.00      1490.48
   90.61        2961.00           1360         454.00      1974.41
   90.64        2961.25           1364        1121.00      4882.63
   90.67        2961.50           1367        3018.00     13156.80
   90.70        2961.75           1370        8642.00     37712.88
   90.73        2962.00           1374       22416.00     98017.96
   90.75        2962.25           1377       34202.00    149804.90
   90.78        2962.50           1380       45806.00    200960.80
   90.80        2962.75           1384       60858.00    267568.50
   90.83        2963.00           1387       73333.00    322989.40
   90.86        2963.25           1391       88702.00    391539.90
   90.89        2963.50           1394       99761.00    441054.40
   90.92        2963.75           1397      111563.00    494070.40
   90.95        2964.00           1401      127060.00    563961.30
   90.97        2964.25           1404      138181.00    614311.80
   91.01        2964.50           1408      154255.00    687377.90
   91.04        2964.75           1411      165976.00    740875.60
   91.06        2965.00           1414      176398.00    788600.60
   91.10        2965.25           1418      191105.00    856199.80
   91.13        2965.50           1421      202221.00    907490.90
   91.15        2965.75           1424      213784.00    961026.40
   91.18        2966.00           1428      227468.00   1024624.00
   91.21        2966.25           1431      238137.00   1074392.00
   91.24        2966.50           1435      247406.00   1117761.00
   91.27        2966.75           1438      249580.00   1127951.00
   91.30        2967.00           1441      250333.00   1131482.00
   91.33        2967.25           1445      250213.00   1130919.00
   91.35        2967.50           1448      250240.00   1131046.00
   91.38        2967.75           1452      246967.00   1115704.00
   91.41        2968.00           1455      241028.00   1087906.00
   91.44        2968.25           1458      230938.00   1040793.00
   91.47        2968.50           1462      216657.00    974357.10
   91.50        2968.75           1465      205086.00    920738.20
   91.53        2969.00           1469      189814.00    850254.00
   91.55        2969.25           1472      177855.00    795284.30
   91.58        2969.50           1475      166690.00    744140.50
   91.61        2969.75           1479      150829.00    671775.60
   91.64        2970.00           1482      139818.00    621737.20
   91.67        2970.25           1485      128284.00    569495.00
   91.70        2970.50           1489      113649.00    503459.80
   91.73        2970.75           1492      102663.00    454073.70
   91.76        2971.00           1496       87710.00    387106.10
   91.78        2971.25           1499       75802.00    333981.50
   91.82        2971.50           1502       64144.00    282147.60
   91.85        2971.75           1506       48334.00    212127.70
   91.87        2972.00           1509       36563.00    160199.70
   91.90        2972.25           1513       21477.00     93899.43
   91.93        2972.50           1516       11350.00     49550.62
   91.96        2972.75           1519        4458.00     19440.60
   91.99        2973.00           1523         979.00      4263.44
   92.02        2973.25           1526         462.00      2009.28
   92.05        2973.50           1530         363.00      1577.67
   92.07        2973.75           1533         275.00      1194.03
   92.10        2974.00           1536         238.00      1032.73
   92.13        2974.25           1540         183.00       792.96
   92.15        2974.50           1543         147.00       636.02
   92.18        2974.75           1547         136.00       588.07
   92.22        2975.00           1550         150.00       649.10
   92.24        2975.25           1553         142.00       614.22
   92.27        2975.50           1557         102.00       439.85
   92.29        2975.75           1560         124.00       535.75
   92.33        2976.00           1564         119.00       513.96
   92.36        2976.25           1567         106.00       457.29
   92.38        2976.50           1570         136.00       588.07
   92.42        2976.75           1574         100.00       431.13
   92.44        2977.00           1577         107.00       461.65
   92.47        2977.25           1581         108.00       466.01
   92.50        2977.50           1584         104.00       448.57
   92.53        2977.75           1587         118.00       509.60
   92.56        2978.00           1591          96.00       413.69
   92.59        2978.25           1594         117.00       505.24
   92.62        2978.50           1598         102.00       439.85
   92.65        2978.75           1601         100.00       431.13
   92.67        2979.00           1604         127.00       548.83
   92.70        2979.25           1608         112.00       483.44
   92.73        2979.50           1611         118.00       509.60
   92.76        2979.75           1614         115.00       496.52
   92.79        2980.00           1618         111.00       479.08
   92.82        2980.25           1621         118.00       509.60
   92.85        2980.50           1625         103.00       444.21
   92.88        2980.75           1628         112.00       483.44
   92.90        2981.00           1631         118.00       509.60
   92.94        2981.25           1635         102.00       439.85
   92.96        2981.50           1638         103.00       444.21
   92.99        2981.75           1642          99.00       426.77
   93.02        2982.00           1645         104.00       448.57
   93.05        2982.25           1648         115.00       496.52
   93.08        2982.50           1652         100.00       431.13
   93.10        2982.75           1655         104.00       448.57
   93.14        2983.00           1659         123.00       531.40
   93.16        2983.25           1662          93.00       400.62
   93.19        2983.50           1666         103.00       444.21
   93.22        2983.75           1669         103.00       444.21
   93.25        2984.00           1672          93.00       400.62
HS scan finished at 01:33:37
end
