************************************************************
  HS Scan of (1) Internal mercury lamp
************************************************************
Integration time is 0.2294 seconds per sample
dh250818El Arenosillo 37.1 6.73 3.29pr1000
************************************************************
Dead Time -------------------------  3.2E-08 
Number of Cycles Used -------------  4 
Starting Wavelength (Angstroms) ---  2950 
Final Wavelength (Angstoms) -------  2984 
Wavelength Increment (Angstroms) --  .25 
Filter Wheel #1 Position ---------- (1) Ground quartz diffuser (ND=2.32)
Filter Wheel #2 Position ---------- (1) Neutral Density 0.494



************************************************************
HS scan start time = 01:27:44
Dark Count =  1.3 


Time (GMT)  Wavelength (Ang)  Step Number  Raw Counts  Counts/Second

   88.36        2950.00           1211          46.00       194.86
   88.57        2950.25           1215          47.00       199.22
   88.60        2950.50           1218          49.00       207.94
   88.63        2950.75           1222          47.00       199.22
   88.66        2951.00           1225          41.00       173.06
   88.69        2951.25           1228          51.00       216.65
   88.72        2951.50           1232          52.00       221.01
   88.75        2951.75           1235          48.00       203.58
   88.78        2952.00           1238          51.00       216.65
   88.80        2952.25           1242          44.00       186.14
   88.84        2952.50           1245          49.00       207.94
   88.87        2952.75           1249          53.00       225.37
   88.90        2953.00           1252          49.00       207.94
   88.93        2953.25           1255          43.00       181.78
   88.95        2953.50           1259          47.00       199.22
   88.99        2953.75           1262          51.00       216.65
   89.02        2954.00           1265          50.00       212.29
   89.05        2954.25           1269          50.00       212.29
   89.08        2954.50           1272          43.00       181.78
   89.11        2954.75           1276          45.00       190.50
   89.14        2955.00           1279          52.00       221.01
   89.17        2955.25           1282          46.00       194.86
   89.20        2955.50           1286          46.00       194.86
   89.23        2955.75           1289          49.00       207.94
   89.26        2956.00           1293          55.00       234.09
   89.29        2956.25           1296          50.00       212.29
   89.32        2956.50           1299          47.00       199.22
   89.35        2956.75           1303          48.00       203.58
   89.38        2957.00           1306          51.00       216.65
   89.41        2957.25           1309          42.00       177.42
   89.44        2957.50           1313          52.00       221.01
   89.47        2957.75           1316          46.00       194.86
   89.50        2958.00           1320          51.00       216.65
   89.53        2958.25           1323          55.00       234.09
   89.56        2958.50           1326          49.00       207.94
   89.59        2958.75           1330          61.00       260.25
   89.62        2959.00           1333          59.00       251.53
   89.65        2959.25           1336          77.00       329.99
   89.68        2959.50           1340          97.00       417.18
   89.70        2959.75           1343         119.00       513.09
   89.74        2960.00           1347         138.00       595.91
   89.76        2960.25           1350         166.00       717.98
   89.80        2960.50           1353         236.00      1023.14
   89.83        2960.75           1357         281.00      1219.32
   89.85        2961.00           1360         374.00      1624.76
   89.89        2961.25           1364        1143.00      4977.69
   89.91        2961.50           1367        3430.00     14953.54
   89.95        2961.75           1370        8189.00     35732.64
   89.97        2962.00           1374       17692.00     77308.28
   90.00        2962.25           1377       25854.00    113105.70
   90.04        2962.50           1380       34027.00    149033.90
   90.06        2962.75           1384       44686.00    196015.10
   90.10        2963.00           1387       51759.00    227268.90
   90.12        2963.25           1391       62011.00    272681.60
   90.15        2963.50           1394       70419.00    310025.20
   90.19        2963.75           1397       77758.00    342694.50
   90.21        2964.00           1401       88280.00    389652.70
   90.25        2964.25           1404       96595.00    426862.20
   90.28        2964.50           1408      107244.00    474647.00
   90.31        2964.75           1411      115521.00    511890.00
   90.34        2965.00           1414      124028.00    550261.40
   90.37        2965.25           1418      135149.00    600567.30
   90.41        2965.50           1421      143807.00    639845.30
   90.43        2965.75           1424      151805.00    676217.90
   90.46        2966.00           1428      161943.00    722446.10
   90.49        2966.25           1431      169149.00    755389.00
   90.52        2966.50           1435      174136.00    778228.80
   90.55        2966.75           1438      175127.00    782771.50
   90.58        2967.00           1441      176030.00    786912.00
   90.61        2967.25           1445      175241.00    783294.10
   90.64        2967.50           1448      175250.00    783335.50
   90.67        2967.75           1452      171592.00    766573.50
   90.70        2968.00           1455      166428.00    742941.40
   90.73        2968.25           1458      159243.00    710120.90
   90.75        2968.50           1462      149532.00    665872.20
   90.79        2968.75           1465      141385.00    628847.50
   90.82        2969.00           1469      130930.00    581463.30
   90.85        2969.25           1472      123478.00    547777.60
   90.88        2969.50           1475      115484.00    511723.30
   90.90        2969.75           1479      105369.00    466222.70
   90.94        2970.00           1482       98041.00    433342.20
   90.96        2970.25           1485       90323.00    398786.80
   91.00        2970.50           1489       81080.00    357504.70
   91.03        2970.75           1492       73566.00    324025.50
   91.05        2971.00           1496       62799.00    276177.60
   91.09        2971.25           1499       54912.00    241221.50
   91.12        2971.50           1502       46640.00    204643.10
   91.15        2971.75           1506       34796.00    152418.60
   91.18        2972.00           1509       26521.00    116034.70
   91.20        2972.25           1513       15680.00     68496.53
   91.24        2972.50           1516        8884.00     38769.52
   91.27        2972.75           1519        3490.00     15215.34
   91.30        2973.00           1523         670.00      2915.27
   91.33        2973.25           1526         327.00      1419.86
   91.35        2973.50           1530         233.00      1010.06
   91.39        2973.75           1533         159.00       687.46
   91.41        2974.00           1536         113.00       486.93
   91.45        2974.25           1540          94.00       404.10
   91.48        2974.50           1543          83.00       356.15
   91.49        2974.75           1547          67.00       286.40
   91.52        2975.00           1550          72.00       308.20
   91.55        2975.25           1553          69.00       295.12
   91.58        2975.50           1557          63.00       268.96
   91.61        2975.75           1560          62.00       264.61
   91.64        2976.00           1564          64.00       273.32
   91.67        2976.25           1567          56.00       238.45
   91.70        2976.50           1570          56.00       238.45
   91.73        2976.75           1574          66.00       282.04
   91.76        2977.00           1577          56.00       238.45
   91.79        2977.25           1581          63.00       268.96
   91.82        2977.50           1584          57.00       242.81
   91.85        2977.75           1587          51.00       216.65
   91.88        2978.00           1591          52.00       221.01
   91.91        2978.25           1594          60.00       255.89
   91.93        2978.50           1598          66.00       282.04
   91.97        2978.75           1601          59.00       251.53
   92.00        2979.00           1604          58.00       247.17
   92.03        2979.25           1608          54.00       229.73
   92.06        2979.50           1611          60.00       255.89
   92.08        2979.75           1614          59.00       251.53
   92.12        2980.00           1618          58.00       247.17
   92.14        2980.25           1621          52.00       221.01
   92.18        2980.50           1625          55.00       234.09
   92.21        2980.75           1628          58.00       247.17
   92.23        2981.00           1631          58.00       247.17
   92.27        2981.25           1635          52.00       221.01
   92.29        2981.50           1638          57.00       242.81
   92.33        2981.75           1642          56.00       238.45
   92.35        2982.00           1645          51.00       216.65
   92.38        2982.25           1648          57.00       242.81
   92.41        2982.50           1652          58.00       247.17
   92.44        2982.75           1655          49.00       207.94
   92.48        2983.00           1659          52.00       221.01
   92.50        2983.25           1662          54.00       229.73
   92.53        2983.50           1666          60.00       255.89
   92.56        2983.75           1669          53.00       225.37
   92.59        2984.00           1672          56.00       238.45
HS scan finished at 01:32:58
end
