************************************************************
  HS Scan of (1) Internal mercury lamp
************************************************************
Integration time is 0.2294 seconds per sample
dh180818El Arenosillo 37.1 6.73 3.11pr1000
************************************************************
Dead Time -------------------------  3.2E-08 
Number of Cycles Used -------------  4 
Starting Wavelength (Angstroms) ---  2950 
Final Wavelength (Angstoms) -------  2984 
Wavelength Increment (Angstroms) --  .25 
Filter Wheel #1 Position ---------- (1) Ground quartz diffuser (ND=2.32)
Filter Wheel #2 Position ---------- (1) Neutral Density 0.494



************************************************************
HS scan start time = 01:29:36
Dark Count =  1.2 


Time (GMT)  Wavelength (Ang)  Step Number  Raw Counts  Counts/Second

   90.22        2950.00           1211          49.00       208.37
   90.43        2950.25           1215          51.00       217.09
   90.47        2950.50           1218          48.00       204.01
   90.50        2950.75           1222          50.00       212.73
   90.52        2951.00           1225          55.00       234.53
   90.56        2951.25           1228          50.00       212.73
   90.58        2951.50           1232          50.00       212.73
   90.62        2951.75           1235          52.00       221.45
   90.65        2952.00           1238          51.00       217.09
   90.67        2952.25           1242          44.00       186.57
   90.71        2952.50           1245          50.00       212.73
   90.73        2952.75           1249          53.00       225.81
   90.77        2953.00           1252          52.00       221.45
   90.80        2953.25           1255          47.00       199.65
   90.82        2953.50           1259          49.00       208.37
   90.86        2953.75           1262          49.00       208.37
   90.89        2954.00           1265          50.00       212.73
   90.92        2954.25           1269          51.00       217.09
   90.95        2954.50           1272          46.00       195.29
   90.97        2954.75           1276          54.00       230.17
   91.01        2955.00           1279          48.00       204.01
   91.03        2955.25           1282          51.00       217.09
   91.07        2955.50           1286          55.00       234.53
   91.10        2955.75           1289          45.00       190.93
   91.12        2956.00           1293          45.00       190.93
   91.16        2956.25           1296          52.00       221.45
   91.19        2956.50           1299          46.00       195.29
   91.22        2956.75           1303          47.00       199.65
   91.25        2957.00           1306          51.00       217.09
   91.27        2957.25           1309          52.00       221.45
   91.31        2957.50           1313          49.00       208.37
   91.33        2957.75           1316          48.00       204.01
   91.37        2958.00           1320          48.00       204.01
   91.40        2958.25           1323          56.00       238.89
   91.42        2958.50           1326          53.00       225.81
   91.46        2958.75           1330          60.00       256.32
   91.48        2959.00           1333          65.00       278.12
   91.52        2959.25           1336          71.00       304.28
   91.54        2959.50           1340          92.00       395.82
   91.57        2959.75           1343         102.00       439.41
   91.61        2960.00           1347         162.00       700.97
   91.63        2960.25           1350         167.00       722.77
   91.67        2960.50           1353         213.00       923.31
   91.69        2960.75           1357         244.00      1058.45
   91.72        2961.00           1360         291.00      1263.35
   91.75        2961.25           1364         672.00      2924.42
   91.78        2961.50           1367        2017.00      8789.74
   91.81        2961.75           1370        5207.00     22709.61
   91.84        2962.00           1374       12680.00     55367.41
   91.87        2962.25           1377       20118.00     87940.24
   91.90        2962.50           1380       27827.00    121771.80
   91.93        2962.75           1384       37820.00    165736.30
   91.96        2963.00           1387       45389.00    199119.10
   91.99        2963.25           1391       55852.00    245384.00
   92.02        2963.50           1394       63353.00    278636.40
   92.05        2963.75           1397       70489.00    310336.90
   92.08        2964.00           1401       79968.00    352546.00
   92.11        2964.25           1404       87692.00    387025.20
   92.14        2964.50           1408       97207.00    429604.80
   92.17        2964.75           1411      104884.00    464044.80
   92.21        2965.00           1414      112669.00    499047.50
   92.23        2965.25           1418      122966.00    545466.30
   92.27        2965.50           1421      130563.00    579803.00
   92.30        2965.75           1424      138923.00    617676.60
   92.32        2966.00           1428      149108.00    663943.60
   92.36        2966.25           1431      156017.00    695407.80
   92.38        2966.50           1435      162364.00    724369.10
   92.42        2966.75           1438      164055.00    732094.50
   92.44        2967.00           1441      164600.00    734585.10
   92.47        2967.25           1445      164964.00    736248.80
   92.51        2967.50           1448      164213.00    732816.50
   92.53        2967.75           1452      162055.00    722958.00
   92.57        2968.00           1455      156925.00    699547.60
   92.59        2968.25           1458      150574.00    670614.50
   92.62        2968.50           1462      141308.00    628498.40
   92.65        2968.75           1465      134123.00    595919.70
   92.68        2969.00           1469      124473.00    552271.60
   92.71        2969.25           1472      116621.00    516846.70
   92.74        2969.50           1475      108837.00    481808.30
   92.77        2969.75           1479       95122.00    420264.50
   92.80        2970.00           1482       91952.00    406074.30
   92.83        2970.25           1485       84734.00    373812.00
   92.87        2970.50           1489       76318.00    336279.30
   92.89        2970.75           1492       69108.00    304197.00
   92.92        2971.00           1496       58756.00    258249.20
   92.96        2971.25           1499       51106.00    224381.30
   92.98        2971.50           1502       43365.00    190185.30
   93.02        2971.75           1506       32675.00    143085.20
   93.04        2972.00           1509       24818.00    108557.80
   93.07        2972.25           1513       14940.00     65257.32
   93.11        2972.50           1516        8218.00     35859.79
   93.13        2972.75           1519        3377.00     14722.72
   93.17        2973.00           1523         650.00      2828.50
   93.19        2973.25           1526         314.00      1363.62
   93.22        2973.50           1530         191.00       827.40
   93.25        2973.75           1533         176.00       762.01
   93.28        2974.00           1536         136.00       587.63
   93.32        2974.25           1540          91.00       391.46
   93.34        2974.50           1543          90.00       387.10
   93.37        2974.75           1547          82.00       352.23
   93.40        2975.00           1550          65.00       278.12
   93.43        2975.25           1553          69.00       295.56
   93.46        2975.50           1557          65.00       278.12
   93.49        2975.75           1560          61.00       260.68
   93.52        2976.00           1564          63.00       269.40
   93.55        2976.25           1567          65.00       278.12
   93.58        2976.50           1570          69.00       295.56
   93.61        2976.75           1574          58.00       247.60
   93.64        2977.00           1577          60.00       256.32
   93.67        2977.25           1581          68.00       291.20
   93.70        2977.50           1584          52.00       221.45
   93.73        2977.75           1587          60.00       256.32
   93.76        2978.00           1591          58.00       247.60
   93.79        2978.25           1594          61.00       260.68
   93.81        2978.50           1598          64.00       273.76
   93.85        2978.75           1601          57.00       243.25
   93.88        2979.00           1604          62.00       265.04
   93.91        2979.25           1608          59.00       251.96
   93.94        2979.50           1611          64.00       273.76
   93.96        2979.75           1614          59.00       251.96
   94.00        2980.00           1618          64.00       273.76
   94.02        2980.25           1621          58.00       247.60
   94.05        2980.50           1625          56.00       238.89
   94.08        2980.75           1628          62.00       265.04
   94.11        2981.00           1631          50.00       212.73
   94.15        2981.25           1635          58.00       247.60
   94.17        2981.50           1638          54.00       230.17
   94.20        2981.75           1642          55.00       234.53
   94.23        2982.00           1645          55.00       234.53
   94.26        2982.25           1648          63.00       269.40
   94.29        2982.50           1652          52.00       221.45
   94.32        2982.75           1655          53.00       225.81
   94.35        2983.00           1659          52.00       221.45
   94.38        2983.25           1662          56.00       238.89
   94.41        2983.50           1666          53.00       225.81
   94.44        2983.75           1669          50.00       212.73
   94.47        2984.00           1672          60.00       256.32
HS scan finished at 01:34:50
end
