************************************************************
  HS Scan of (1) Internal mercury lamp
************************************************************
Integration time is 0.2294 seconds per sample
dh010918El Arenosillo 37.1 6.73 3.21pr1000
************************************************************
Dead Time -------------------------  3.2E-08 
Number of Cycles Used -------------  4 
Starting Wavelength (Angstroms) ---  2950 
Final Wavelength (Angstoms) -------  2984 
Wavelength Increment (Angstroms) --  .25 
Filter Wheel #1 Position ---------- (1) Ground quartz diffuser (ND=2.32)
Filter Wheel #2 Position ---------- (1) Neutral Density 0.494



************************************************************
HS scan start time = 01:27:18
Dark Count =  1.1 


Time (GMT)  Wavelength (Ang)  Step Number  Raw Counts  Counts/Second

   87.94        2950.00           1211          53.00       226.24
   88.15        2950.25           1215          43.00       182.65
   88.18        2950.50           1218          48.00       204.45
   88.21        2950.75           1222          52.00       221.88
   88.24        2951.00           1225          54.00       230.60
   88.27        2951.25           1228          56.00       239.32
   88.30        2951.50           1232          45.00       191.37
   88.33        2951.75           1235          44.00       187.01
   88.36        2952.00           1238          49.00       208.81
   88.38        2952.25           1242          50.00       213.17
   88.42        2952.50           1245          48.00       204.45
   88.45        2952.75           1249          49.00       208.81
   88.48        2953.00           1252          45.00       191.37
   88.51        2953.25           1255          47.00       200.09
   88.53        2953.50           1259          51.00       217.53
   88.57        2953.75           1262          53.00       226.24
   88.59        2954.00           1265          47.00       200.09
   88.63        2954.25           1269          49.00       208.81
   88.66        2954.50           1272          46.00       195.73
   88.68        2954.75           1276          59.00       252.40
   88.72        2955.00           1279          47.00       200.09
   88.74        2955.25           1282          49.00       208.81
   88.78        2955.50           1286          52.00       221.88
   88.81        2955.75           1289          46.00       195.73
   88.83        2956.00           1293          35.00       147.78
   88.85        2956.25           1296          52.00       221.88
   88.88        2956.50           1299          54.00       230.60
   88.91        2956.75           1303          52.00       221.88
   88.94        2957.00           1306          49.00       208.81
   88.97        2957.25           1309          52.00       221.88
   89.00        2957.50           1313          52.00       221.88
   89.03        2957.75           1316          50.00       213.17
   89.06        2958.00           1320          53.00       226.24
   89.09        2958.25           1323          48.00       204.45
   89.12        2958.50           1326          49.00       208.81
   89.15        2958.75           1330          55.00       234.96
   89.18        2959.00           1333          62.00       265.48
   89.21        2959.25           1336          74.00       317.79
   89.24        2959.50           1340          80.00       343.94
   89.27        2959.75           1343          99.00       426.77
   89.30        2960.00           1347         132.00       570.63
   89.33        2960.25           1350         166.00       718.85
   89.36        2960.50           1353         180.00       779.88
   89.39        2960.75           1357         258.00      1119.92
   89.42        2961.00           1360         299.00      1298.66
   89.45        2961.25           1364         609.00      2650.18
   89.48        2961.50           1367        1686.00      7346.54
   89.51        2961.75           1370        4464.00     19466.79
   89.54        2962.00           1374       12108.00     52865.73
   89.57        2962.25           1377       19891.00     86945.59
   89.60        2962.50           1380       27883.00    122018.20
   89.63        2962.75           1384       38814.00    170116.70
   89.66        2963.00           1387       46725.00    205019.40
   89.69        2963.25           1391       57121.00    251005.00
   89.71        2963.50           1394       65240.00    287013.30
   89.75        2963.75           1397       72864.00    320902.30
   89.78        2964.00           1401       83613.00    368807.90
   89.81        2964.25           1404       91765.00    405238.10
   89.84        2964.50           1408      102955.00    455384.30
   89.87        2964.75           1411      110604.00    489755.70
   89.90        2965.00           1414      118899.00    527116.10
   89.93        2965.25           1418      130047.00    577468.90
   89.97        2965.50           1421      138134.00    614098.60
   89.99        2965.75           1424      145967.00    649660.80
   90.02        2966.00           1428      156692.00    698485.70
   90.06        2966.25           1431      163866.00    731231.30
   90.08        2966.50           1435      171416.00    765768.30
   90.12        2966.75           1438      175632.00    785087.80
   90.14        2967.00           1441      177034.00    791517.80
   90.17        2967.25           1445      177122.00    791921.50
   90.20        2967.50           1448      177116.00    791894.00
   90.23        2967.75           1452      175681.00    785312.50
   90.27        2968.00           1455      172699.00    771645.00
   90.29        2968.25           1458      166066.00    741287.10
   90.32        2968.50           1462      156692.00    698485.70
   90.35        2968.75           1465      148543.00    661373.80
   90.38        2969.00           1469      138127.00    614067.00
   90.41        2969.25           1472      130339.00    578790.00
   90.44        2969.50           1475      123142.00    546261.50
   90.47        2969.75           1479      112294.00    497360.10
   90.50        2970.00           1482      103866.00    459474.00
   90.53        2970.25           1485       96612.00    426939.20
   90.56        2970.50           1489       86648.00    382360.90
   90.59        2970.75           1492       78776.00    347232.30
   90.62        2971.00           1496       68234.00    300312.90
   90.66        2971.25           1499       59891.00    263280.70
   90.68        2971.50           1502       51479.00    226031.40
   90.72        2971.75           1506       40587.00    177932.20
   90.74        2972.00           1509       32510.00    142359.80
   90.77        2972.25           1513       21679.00     94785.31
   90.80        2972.50           1516       14179.00     61926.87
   90.83        2972.75           1519        7916.00     34540.77
   90.87        2973.00           1523        1928.00      8402.00
   90.89        2973.25           1526         551.00      2397.31
   90.92        2973.50           1530         228.00       989.13
   90.95        2973.75           1533         188.00       814.76
   90.98        2974.00           1536         150.00       649.10
   91.01        2974.25           1540         119.00       513.96
   91.04        2974.50           1543          94.00       404.97
   91.07        2974.75           1547          81.00       348.30
   91.10        2975.00           1550          69.00       295.99
   91.13        2975.25           1553          72.00       309.07
   91.16        2975.50           1557          62.00       265.48
   91.19        2975.75           1560          66.00       282.91
   91.22        2976.00           1564          69.00       295.99
   91.25        2976.25           1567          62.00       265.48
   91.28        2976.50           1570          57.00       243.68
   91.31        2976.75           1574          63.00       269.84
   91.34        2977.00           1577          59.00       252.40
   91.37        2977.25           1581          58.00       248.04
   91.40        2977.50           1584          60.00       256.76
   91.43        2977.75           1587          60.00       256.76
   91.46        2978.00           1591          55.00       234.96
   91.49        2978.25           1594          64.00       274.20
   91.52        2978.50           1598          55.00       234.96
   91.55        2978.75           1601          56.00       239.32
   91.58        2979.00           1604          62.00       265.48
   91.61        2979.25           1608          58.00       248.04
   91.64        2979.50           1611          60.00       256.76
   91.66        2979.75           1614          63.00       269.84
   91.70        2980.00           1618          70.00       300.35
   91.72        2980.25           1621          62.00       265.48
   91.76        2980.50           1625          55.00       234.96
   91.79        2980.75           1628          60.00       256.76
   91.81        2981.00           1631          56.00       239.32
   91.85        2981.25           1635          61.00       261.12
   91.87        2981.50           1638          56.00       239.32
   91.91        2981.75           1642          54.00       230.60
   91.93        2982.00           1645          58.00       248.04
   91.96        2982.25           1648          63.00       269.84
   92.00        2982.50           1652          57.00       243.68
   92.02        2982.75           1655          57.00       243.68
   92.06        2983.00           1659          63.00       269.84
   92.08        2983.25           1662          53.00       226.24
   92.11        2983.50           1666          56.00       239.32
   92.14        2983.75           1669          56.00       239.32
   92.17        2984.00           1672          49.00       208.81
HS scan finished at 01:32:32
end
