************************************************************
  HS Scan of (1) Internal mercury lamp
************************************************************
Integration time is 0.2294 seconds per sample
dh080918El Arenosillo 37.1 6.73 3.05pr1000
************************************************************
Dead Time -------------------------  3.2E-08 
Number of Cycles Used -------------  4 
Starting Wavelength (Angstroms) ---  2950 
Final Wavelength (Angstoms) -------  2984 
Wavelength Increment (Angstroms) --  .25 
Filter Wheel #1 Position ---------- (1) Ground quartz diffuser (ND=2.32)
Filter Wheel #2 Position ---------- (1) Neutral Density 0.494



************************************************************
HS scan start time = 01:22:49
Dark Count =  .9 


Time (GMT)  Wavelength (Ang)  Step Number  Raw Counts  Counts/Second

   83.45        2950.00           1211          49.00       209.68
   83.66        2950.25           1215          50.00       214.04
   83.70        2950.50           1218          50.00       214.04
   83.72        2950.75           1222          45.00       192.24
   83.75        2951.00           1225          51.00       218.40
   83.79        2951.25           1228          49.00       209.68
   83.81        2951.50           1232          48.00       205.32
   83.85        2951.75           1235          51.00       218.40
   83.87        2952.00           1238          52.00       222.76
   83.90        2952.25           1242          50.00       214.04
   83.94        2952.50           1245          53.00       227.12
   83.96        2952.75           1249          50.00       214.04
   84.00        2953.00           1252          48.00       205.32
   84.02        2953.25           1255          53.00       227.12
   84.05        2953.50           1259          47.00       200.96
   84.08        2953.75           1262          49.00       209.68
   84.11        2954.00           1265          48.00       205.32
   84.15        2954.25           1269          49.00       209.68
   84.17        2954.50           1272          55.00       235.83
   84.20        2954.75           1276          58.00       248.91
   84.23        2955.00           1279          47.00       200.96
   84.26        2955.25           1282          50.00       214.04
   84.30        2955.50           1286          55.00       235.83
   84.32        2955.75           1289          52.00       222.76
   84.35        2956.00           1293          55.00       235.83
   84.39        2956.25           1296          56.00       240.19
   84.41        2956.50           1299          45.00       192.24
   84.45        2956.75           1303          50.00       214.04
   84.47        2957.00           1306          55.00       235.83
   84.50        2957.25           1309          53.00       227.12
   84.54        2957.50           1313          47.00       200.96
   84.56        2957.75           1316          58.00       248.91
   84.60        2958.00           1320          56.00       240.19
   84.62        2958.25           1323          54.00       231.48
   84.65        2958.50           1326          57.00       244.55
   84.68        2958.75           1330          61.00       261.99
   84.71        2959.00           1333          55.00       235.83
   84.75        2959.25           1336          64.00       275.07
   84.77        2959.50           1340          74.00       318.66
   84.80        2959.75           1343          92.00       397.13
   84.83        2960.00           1347         144.00       623.81
   84.86        2960.25           1350         139.00       602.02
   84.89        2960.50           1353         176.00       763.31
   84.92        2960.75           1357         243.00      1055.40
   84.95        2961.00           1360         259.00      1125.15
   84.98        2961.25           1364         624.00      2716.45
   85.01        2961.50           1367        1746.00      7609.09
   85.04        2961.75           1370        4608.00     20096.18
   85.07        2962.00           1374       12343.00     53894.53
   85.09        2962.25           1377       19667.00     85964.58
   85.13        2962.50           1380       27521.00    120428.80
   85.16        2962.75           1384       37605.00    164790.40
   85.19        2963.00           1387       45359.00    198988.00
   85.22        2963.25           1391       55509.00    243866.50
   85.24        2963.50           1394       62744.00    275935.40
   85.28        2963.75           1397       70399.00    309938.00
   85.31        2964.00           1401       80895.00    356681.40
   85.34        2964.25           1404       88666.00    391379.90
   85.37        2964.50           1408       98437.00    435119.00
   85.40        2964.75           1411      107035.00    473709.50
   85.43        2965.00           1414      114688.00    508139.60
   85.46        2965.25           1418      124985.00    554585.70
   85.49        2965.50           1421      132576.00    588915.50
   85.52        2965.75           1424      140215.00    623539.30
   85.55        2966.00           1428      149214.00    664427.10
   85.58        2966.25           1431      156916.00    699508.00
   85.61        2966.50           1435      164308.00    733252.00
   85.64        2966.75           1438      167686.00    748696.90
   85.67        2967.00           1441      169067.00    755015.50
   85.70        2967.25           1445      168687.00    753276.60
   85.73        2967.50           1448      169101.00    755171.10
   85.76        2967.75           1452      167763.00    749049.10
   85.79        2968.00           1455      163845.00    731136.30
   85.82        2968.25           1458      157655.00    702878.10
   85.84        2968.50           1462      147868.00    658304.60
   85.88        2968.75           1465      139959.00    622377.80
   85.91        2969.00           1469      129649.00    575669.30
   85.94        2969.25           1472      121937.00    540822.80
   85.97        2969.50           1475      113943.00    504784.50
   85.99        2969.75           1479      104274.00    461306.80
   86.03        2970.00           1482       97242.00    429763.10
   86.06        2970.25           1485       88961.00    392698.60
   86.09        2970.50           1489       78791.00    347300.10
   86.12        2970.75           1492       71045.00    312810.90
   86.15        2971.00           1496       60841.00    267494.00
   86.18        2971.25           1499       53023.00    232862.60
   86.21        2971.50           1502       45537.00    199773.90
   86.24        2971.75           1506       34720.00    152085.80
   86.27        2972.00           1509       27026.00    118254.40
   86.30        2972.25           1513       17503.00     76482.08
   86.33        2972.50           1516       10311.00     45008.55
   86.36        2972.75           1519        4388.00     19135.95
   86.39        2973.00           1523         865.00      3767.24
   86.42        2973.25           1526         322.00      1399.80
   86.45        2973.50           1530         234.00      1016.16
   86.48        2973.75           1533         158.00       684.85
   86.51        2974.00           1536         152.00       658.69
   86.54        2974.25           1540          96.00       414.57
   86.57        2974.50           1543          85.00       366.61
   86.60        2974.75           1547          75.00       323.02
   86.63        2975.00           1550          69.00       296.86
   86.66        2975.25           1553          72.00       309.94
   86.69        2975.50           1557          61.00       261.99
   86.72        2975.75           1560          59.00       253.27
   86.74        2976.00           1564          62.00       266.35
   86.78        2976.25           1567          62.00       266.35
   86.81        2976.50           1570          60.00       257.63
   86.84        2976.75           1574          65.00       279.43
   86.87        2977.00           1577          70.00       301.22
   86.89        2977.25           1581          68.00       292.50
   86.93        2977.50           1584          62.00       266.35
   86.95        2977.75           1587          65.00       279.43
   86.99        2978.00           1591          62.00       266.35
   87.01        2978.25           1594          67.00       288.15
   87.04        2978.50           1598          56.00       240.19
   87.08        2978.75           1601          68.00       292.50
   87.10        2979.00           1604          63.00       270.71
   87.14        2979.25           1608          57.00       244.55
   87.16        2979.50           1611          66.00       283.79
   87.19        2979.75           1614          65.00       279.43
   87.22        2980.00           1618          61.00       261.99
   87.25        2980.25           1621          61.00       261.99
   87.29        2980.50           1625          60.00       257.63
   87.31        2980.75           1628          50.00       214.04
   87.34        2981.00           1631          62.00       266.35
   87.37        2981.25           1635          56.00       240.19
   87.40        2981.50           1638          60.00       257.63
   87.43        2981.75           1642          53.00       227.12
   87.46        2982.00           1645          59.00       253.27
   87.49        2982.25           1648          62.00       266.35
   87.52        2982.50           1652          51.00       218.40
   87.55        2982.75           1655          55.00       235.83
   87.58        2983.00           1659          63.00       270.71
   87.61        2983.25           1662          58.00       248.91
   87.64        2983.50           1666          54.00       231.48
   87.67        2983.75           1669          60.00       257.63
   87.70        2984.00           1672          57.00       244.55
HS scan finished at 01:28:04
end
