************************************************************
  HS Scan of (1) Internal mercury lamp
************************************************************
Integration time is 0.2294 seconds per sample
dh150918El Arenosillo 37.1 6.73 3pr1000
************************************************************
Dead Time -------------------------  3.2E-08 
Number of Cycles Used -------------  4 
Starting Wavelength (Angstroms) ---  2950 
Final Wavelength (Angstoms) -------  2984 
Wavelength Increment (Angstroms) --  .25 
Filter Wheel #1 Position ---------- (1) Ground quartz diffuser (ND=2.32)
Filter Wheel #2 Position ---------- (1) Neutral Density 0.494



************************************************************
HS scan start time = 01:20:19
Dark Count =  .7 


Time (GMT)  Wavelength (Ang)  Step Number  Raw Counts  Counts/Second

   80.95        2950.00           1211          48.00       206.19
   81.16        2950.25           1215          48.00       206.19
   81.20        2950.50           1218          48.00       206.19
   81.22        2950.75           1222          46.00       197.47
   81.25        2951.00           1225          54.00       232.35
   81.29        2951.25           1228          52.00       223.63
   81.31        2951.50           1232          49.00       210.55
   81.35        2951.75           1235          48.00       206.19
   81.37        2952.00           1238          50.00       214.91
   81.40        2952.25           1242          48.00       206.19
   81.44        2952.50           1245          50.00       214.91
   81.46        2952.75           1249          47.00       201.83
   81.50        2953.00           1252          59.00       254.14
   81.52        2953.25           1255          52.00       223.63
   81.55        2953.50           1259          55.00       236.71
   81.58        2953.75           1262          53.00       227.99
   81.61        2954.00           1265          55.00       236.71
   81.65        2954.25           1269          46.00       197.47
   81.67        2954.50           1272          55.00       236.71
   81.70        2954.75           1276          49.00       210.55
   81.74        2955.00           1279          47.00       201.83
   81.76        2955.25           1282          49.00       210.55
   81.80        2955.50           1286          52.00       223.63
   81.83        2955.75           1289          56.00       241.07
   81.85        2956.00           1293          61.00       262.86
   81.89        2956.25           1296          55.00       236.71
   81.91        2956.50           1299          51.00       219.27
   81.95        2956.75           1303          54.00       232.35
   81.98        2957.00           1306          57.00       245.42
   82.00        2957.25           1309          57.00       245.42
   82.04        2957.50           1313          50.00       214.91
   82.06        2957.75           1316          48.00       206.19
   82.10        2958.00           1320          57.00       245.42
   82.13        2958.25           1323          59.00       254.14
   82.15        2958.50           1326          61.00       262.86
   82.19        2958.75           1330          61.00       262.86
   82.21        2959.00           1333          70.00       302.10
   82.25        2959.25           1336          78.00       336.97
   82.28        2959.50           1340          85.00       367.48
   82.30        2959.75           1343         127.00       550.58
   82.34        2960.00           1347         159.00       690.08
   82.36        2960.25           1350         154.00       668.28
   82.40        2960.50           1353         199.00       864.45
   82.43        2960.75           1357         226.00       982.16
   82.45        2961.00           1360         355.00      1544.54
   82.49        2961.25           1364        1166.00      5080.60
   82.51        2961.50           1367        3133.00     13660.29
   82.55        2961.75           1370        7413.00     32345.15
   82.57        2962.00           1374       15814.00     69085.87
   82.60        2962.25           1377       23059.00    100840.60
   82.64        2962.50           1380       30494.00    133495.40
   82.66        2962.75           1384       40660.00    178255.90
   82.70        2963.00           1387       47807.00    209800.90
   82.72        2963.25           1391       57844.00    254210.00
   82.75        2963.50           1394       65883.00    289870.30
   82.78        2963.75           1397       73066.00    321803.00
   82.81        2964.00           1401       82862.00    365457.90
   82.85        2964.25           1404       90624.00    400135.70
   82.88        2964.50           1408      101327.00    448080.40
   82.90        2964.75           1411      108375.00    479733.40
   82.94        2965.00           1414      116043.00    514244.40
   82.96        2965.25           1418      125954.00    558964.60
   83.00        2965.50           1421      132918.00    590464.90
   83.03        2965.75           1424      139945.00    622315.10
   83.05        2966.00           1428      149043.00    663650.10
   83.09        2966.25           1431      155564.00    693345.00
   83.11        2966.50           1435      160493.00    715828.40
   83.15        2966.75           1438      161896.00    722234.20
   83.18        2967.00           1441      161784.00    721722.70
   83.20        2967.25           1445      162051.00    722942.00
   83.24        2967.50           1448      161258.00    719321.00
   83.27        2967.75           1452      158015.00    704521.10
   83.30        2968.00           1455      153812.00    685361.30
   83.33        2968.25           1458      147645.00    657291.40
   83.35        2968.50           1462      138676.00    616558.50
   83.39        2968.75           1465      131967.00    586159.50
   83.41        2969.00           1469      122656.00    544069.10
   83.45        2969.25           1472      114991.00    509505.20
   83.47        2969.50           1475      107692.00    476663.20
   83.50        2969.75           1479       97740.00    431995.70
   83.54        2970.00           1482       89517.00    395185.30
   83.56        2970.25           1485       82948.00    365841.60
   83.60        2970.50           1489       72784.00    320548.00
   83.63        2970.75           1492       65291.00    287241.50
   83.66        2971.00           1496       55403.00    243398.00
   83.69        2971.25           1499       48278.00    211882.10
   83.72        2971.50           1502       41152.00    180425.40
   83.75        2971.75           1506       31621.00    138451.20
   83.78        2972.00           1509       24221.00    105939.60
   83.80        2972.25           1513       14686.00     64147.67
   83.84        2972.50           1516        7992.00     34874.56
   83.87        2972.75           1519        2985.00     13014.57
   83.90        2973.00           1523         523.00      2276.97
   83.93        2973.25           1526         264.00      1147.82
   83.95        2973.50           1530         196.00       851.37
   83.99        2973.75           1533         156.00       677.00
   84.01        2974.00           1536         120.00       520.06
   84.05        2974.25           1540          99.00       428.52
   84.08        2974.50           1543          89.00       384.92
   84.10        2974.75           1547          75.00       323.89
   84.14        2975.00           1550          71.00       306.45
   84.16        2975.25           1553          61.00       262.86
   84.20        2975.50           1557          71.00       306.45
   84.22        2975.75           1560          66.00       284.66
   84.25        2976.00           1564          69.00       297.74
   84.29        2976.25           1567          63.00       271.58
   84.31        2976.50           1570          65.00       280.30
   84.35        2976.75           1574          64.00       275.94
   84.37        2977.00           1577          55.00       236.71
   84.40        2977.25           1581          68.00       293.38
   84.43        2977.50           1584          59.00       254.14
   84.46        2977.75           1587          64.00       275.94
   84.49        2978.00           1591          62.00       267.22
   84.52        2978.25           1594          62.00       267.22
   84.55        2978.50           1598          63.00       271.58
   84.58        2978.75           1601          68.00       293.38
   84.61        2979.00           1604          64.00       275.94
   84.64        2979.25           1608          62.00       267.22
   84.67        2979.50           1611          58.00       249.78
   84.70        2979.75           1614          57.00       245.42
   84.73        2980.00           1618          60.00       258.50
   84.76        2980.25           1621          65.00       280.30
   84.79        2980.50           1625          63.00       271.58
   84.82        2980.75           1628          61.00       262.86
   84.84        2981.00           1631          65.00       280.30
   84.88        2981.25           1635          65.00       280.30
   84.91        2981.50           1638          55.00       236.71
   84.94        2981.75           1642          59.00       254.14
   84.97        2982.00           1645          54.00       232.35
   84.99        2982.25           1648          61.00       262.86
   85.03        2982.50           1652          51.00       219.27
   85.05        2982.75           1655          57.00       245.42
   85.09        2983.00           1659          63.00       271.58
   85.12        2983.25           1662          57.00       245.42
   85.14        2983.50           1666          55.00       236.71
   85.18        2983.75           1669          53.00       227.99
   85.20        2984.00           1672          58.00       249.78
HS scan finished at 01:25:34
end
