************************************************************
  HS Scan of (1) Internal mercury lamp
************************************************************
Integration time is 0.2294 seconds per sample
dh220918El Arenosillo 37.1 6.73 3.13pr1000
************************************************************
Dead Time -------------------------  3.2E-08 
Number of Cycles Used -------------  4 
Starting Wavelength (Angstroms) ---  2950 
Final Wavelength (Angstoms) -------  2984 
Wavelength Increment (Angstroms) --  .25 
Filter Wheel #1 Position ---------- (1) Ground quartz diffuser (ND=2.32)
Filter Wheel #2 Position ---------- (1) Neutral Density 0.494



************************************************************
HS scan start time = 01:17:32
Dark Count =  .9 


Time (GMT)  Wavelength (Ang)  Step Number  Raw Counts  Counts/Second

   78.16        2950.00           1211          49.00       209.68
   78.37        2950.25           1215          47.00       200.96
   78.40        2950.50           1218          49.00       209.68
   78.43        2950.75           1222          48.00       205.32
   78.46        2951.00           1225          49.00       209.68
   78.50        2951.25           1228          46.00       196.60
   78.52        2951.50           1232          47.00       200.96
   78.55        2951.75           1235          47.00       200.96
   78.58        2952.00           1238          49.00       209.68
   78.61        2952.25           1242          47.00       200.96
   78.64        2952.50           1245          50.00       214.04
   78.67        2952.75           1249          49.00       209.68
   78.71        2953.00           1252          45.00       192.24
   78.73        2953.25           1255          52.00       222.76
   78.76        2953.50           1259          55.00       235.83
   78.79        2953.75           1262          51.00       218.40
   78.82        2954.00           1265          45.00       192.24
   78.86        2954.25           1269          46.00       196.60
   78.88        2954.50           1272          56.00       240.19
   78.91        2954.75           1276          51.00       218.40
   78.94        2955.00           1279          52.00       222.76
   78.97        2955.25           1282          48.00       205.32
   79.00        2955.50           1286          50.00       214.04
   79.03        2955.75           1289          47.00       200.96
   79.06        2956.00           1293          50.00       214.04
   79.09        2956.25           1296          49.00       209.68
   79.12        2956.50           1299          42.00       179.16
   79.16        2956.75           1303          46.00       196.60
   79.18        2957.00           1306          48.00       205.32
   79.21        2957.25           1309          48.00       205.32
   79.24        2957.50           1313          51.00       218.40
   79.27        2957.75           1316          54.00       231.48
   79.30        2958.00           1320          49.00       209.68
   79.33        2958.25           1323          53.00       227.12
   79.36        2958.50           1326          43.00       183.52
   79.39        2958.75           1330          51.00       218.40
   79.42        2959.00           1333          63.00       270.71
   79.45        2959.25           1336          69.00       296.86
   79.48        2959.50           1340          76.00       327.38
   79.51        2959.75           1343          98.00       423.28
   79.54        2960.00           1347         142.00       615.10
   79.57        2960.25           1350         151.00       654.33
   79.60        2960.50           1353         163.00       706.64
   79.63        2960.75           1357         197.00       854.86
   79.66        2961.00           1360         249.00      1081.55
   79.69        2961.25           1364         695.00      3026.01
   79.72        2961.50           1367        2036.00      8873.92
   79.75        2961.75           1370        5093.00     22213.26
   79.78        2962.00           1374       12731.00     55591.83
   79.81        2962.25           1377       19799.00     86543.18
   79.84        2962.50           1380       27107.00    118610.20
   79.87        2962.75           1384       36368.00    159341.80
   79.90        2963.00           1387       43365.00    190186.70
   79.93        2963.25           1391       52895.00    232296.20
   79.96        2963.50           1394       59891.00    263281.70
   79.99        2963.75           1397       67336.00    296323.60
   80.02        2964.00           1401       76727.00    338102.60
   80.06        2964.25           1404       84151.00    371210.40
   80.08        2964.50           1408       93635.00    413607.80
   80.11        2964.75           1411      101120.00    447150.90
   80.15        2965.00           1414      108357.00    479651.70
   80.17        2965.25           1418      117990.00    523018.60
   80.21        2965.50           1421      125042.00    554843.30
   80.24        2965.75           1424      131661.00    584773.50
   80.26        2966.00           1428      140897.00    626634.30
   80.30        2966.25           1431      147393.00    656144.60
   80.33        2966.50           1435      153415.00    683551.90
   80.36        2966.75           1438      155382.00    692514.60
   80.39        2967.00           1441      155565.00    693348.70
   80.41        2967.25           1445      156317.00    696776.80
   80.45        2967.50           1448      155786.00    694356.10
   80.48        2967.75           1452      153108.00    682153.40
   80.51        2968.00           1455      148638.00    661806.80
   80.54        2968.25           1458      142502.00    633920.30
   80.56        2968.50           1462      133747.00    594218.00
   80.60        2968.75           1465      126936.00    563401.80
   80.62        2969.00           1469      117993.00    523032.10
   80.66        2969.25           1472      110952.00    491322.20
   80.68        2969.50           1475      104131.00    460664.70
   80.71        2969.75           1479       94549.00    417699.90
   80.75        2970.00           1482       87596.00    386597.60
   80.77        2970.25           1485       79794.00    351771.50
   80.81        2970.50           1489       70586.00    310769.60
   80.84        2970.75           1492       63257.00    278211.70
   80.86        2971.00           1496       53994.00    237159.70
   80.90        2971.25           1499       47185.00    207052.20
   80.93        2971.50           1502       40404.00    177126.30
   80.96        2971.75           1506       31434.00    137627.90
   80.99        2972.00           1509       24187.00    105789.50
   81.02        2972.25           1513       14648.00     63980.47
   81.05        2972.50           1516        8228.00     35904.79
   81.08        2972.75           1519        3268.00     14248.43
   81.11        2973.00           1523         588.00      2559.49
   81.14        2973.25           1526         284.00      1234.14
   81.17        2973.50           1530         172.00       745.88
   81.20        2973.75           1533         157.00       680.49
   81.23        2974.00           1536         134.00       580.22
   81.26        2974.25           1540          92.00       397.13
   81.29        2974.50           1543          78.00       336.10
   81.31        2974.75           1547          68.00       292.50
   81.35        2975.00           1550          65.00       279.43
   81.37        2975.25           1553          65.00       279.43
   81.41        2975.50           1557          60.00       257.63
   81.44        2975.75           1560          65.00       279.43
   81.46        2976.00           1564          59.00       253.27
   81.50        2976.25           1567          59.00       253.27
   81.52        2976.50           1570          64.00       275.07
   81.56        2976.75           1574          67.00       288.15
   81.58        2977.00           1577          63.00       270.71
   81.61        2977.25           1581          63.00       270.71
   81.65        2977.50           1584          62.00       266.35
   81.67        2977.75           1587          56.00       240.19
   81.71        2978.00           1591          57.00       244.55
   81.74        2978.25           1594          60.00       257.63
   81.76        2978.50           1598          60.00       257.63
   81.80        2978.75           1601          61.00       261.99
   81.82        2979.00           1604          61.00       261.99
   81.86        2979.25           1608          64.00       275.07
   81.88        2979.50           1611          60.00       257.63
   81.91        2979.75           1614          54.00       231.48
   81.94        2980.00           1618          50.00       214.04
   81.97        2980.25           1621          52.00       222.76
   82.01        2980.50           1625          60.00       257.63
   82.03        2980.75           1628          54.00       231.48
   82.06        2981.00           1631          57.00       244.55
   82.09        2981.25           1635          55.00       235.83
   82.12        2981.50           1638          59.00       253.27
   82.15        2981.75           1642          52.00       222.76
   82.18        2982.00           1645          58.00       248.91
   82.21        2982.25           1648          59.00       253.27
   82.24        2982.50           1652          59.00       253.27
   82.27        2982.75           1655          60.00       257.63
   82.30        2983.00           1659          52.00       222.76
   82.33        2983.25           1662          47.00       200.96
   82.36        2983.50           1666          56.00       240.19
   82.39        2983.75           1669          58.00       248.91
   82.42        2984.00           1672          50.00       214.04
HS scan finished at 01:22:47
end
