************************************************************
  HS Scan of (1) Internal mercury lamp
************************************************************
Integration time is 0.2294 seconds per sample
dh061018El Arenosillo 37.1 6.73 2.92pr1000
************************************************************
Dead Time -------------------------  3.2E-08 
Number of Cycles Used -------------  4 
Starting Wavelength (Angstroms) ---  2950 
Final Wavelength (Angstoms) -------  2984 
Wavelength Increment (Angstroms) --  .25 
Filter Wheel #1 Position ---------- (1) Ground quartz diffuser (ND=2.32)
Filter Wheel #2 Position ---------- (1) Neutral Density 0.494



************************************************************
HS scan start time = 01:11:26
Dark Count =  .5 


Time (GMT)  Wavelength (Ang)  Step Number  Raw Counts  Counts/Second

   72.06        2950.00           1211          43.00       185.27
   72.28        2950.25           1215          52.00       224.50
   72.31        2950.50           1218          52.00       224.50
   72.33        2950.75           1222          49.00       211.42
   72.36        2951.00           1225          48.00       207.06
   72.39        2951.25           1228          46.00       198.34
   72.42        2951.50           1232          45.00       193.99
   72.45        2951.75           1235          48.00       207.06
   72.48        2952.00           1238          46.00       198.34
   72.51        2952.25           1242          55.00       237.58
   72.53        2952.50           1245          56.00       241.94
   72.56        2952.75           1249          52.00       224.50
   72.60        2953.00           1252          51.00       220.14
   72.62        2953.25           1255          47.00       202.70
   72.65        2953.50           1259          49.00       211.42
   72.68        2953.75           1262          58.00       250.66
   72.71        2954.00           1265          48.00       207.06
   72.74        2954.25           1269          46.00       198.34
   72.77        2954.50           1272          50.00       215.78
   72.80        2954.75           1276          58.00       250.66
   72.83        2955.00           1279          49.00       211.42
   72.85        2955.25           1282          48.00       207.06
   72.88        2955.50           1286          51.00       220.14
   72.91        2955.75           1289          52.00       224.50
   72.94        2956.00           1293          51.00       220.14
   72.97        2956.25           1296          47.00       202.70
   73.00        2956.50           1299          51.00       220.14
   73.03        2956.75           1303          50.00       215.78
   73.06        2957.00           1306          53.00       228.86
   73.08        2957.25           1309          53.00       228.86
   73.11        2957.50           1313          48.00       207.06
   73.14        2957.75           1316          51.00       220.14
   73.16        2958.00           1320          52.00       224.50
   73.20        2958.25           1323          51.00       220.14
   73.22        2958.50           1326          44.00       189.63
   73.25        2958.75           1330          56.00       241.94
   73.28        2959.00           1333          65.00       281.17
   73.31        2959.25           1336          73.00       316.05
   73.34        2959.50           1340          80.00       346.56
   73.36        2959.75           1343         103.00       446.82
   73.40        2960.00           1347         112.00       486.06
   73.42        2960.25           1350         140.00       608.12
   73.45        2960.50           1353         159.00       690.95
   73.48        2960.75           1357         205.00       891.48
   73.51        2961.00           1360         248.00      1078.94
   73.54        2961.25           1364         660.00      2875.16
   73.57        2961.50           1367        1888.00      8230.15
   73.60        2961.75           1370        4838.00     21101.87
   73.63        2962.00           1374       11545.00     50406.01
   73.66        2962.25           1377       17500.00     76470.70
   73.68        2962.50           1380       23823.00    104193.80
   73.72        2962.75           1384       32730.00    143330.30
   73.74        2963.00           1387       38968.00    170798.00
   73.77        2963.25           1391       47229.00    207248.30
   73.80        2963.50           1394       54035.00    237342.90
   73.83        2963.75           1397       59838.00    263048.50
   73.86        2964.00           1401       68757.00    302640.00
   73.89        2964.25           1404       75322.00    331846.60
   73.92        2964.50           1408       83828.00    369770.30
   73.95        2964.75           1411       89659.00    395821.10
   73.97        2965.00           1414       96041.00    424383.90
   74.00        2965.25           1418      105477.00    466711.40
   74.04        2965.50           1421      111696.00    494671.60
   74.06        2965.75           1424      117745.00    521915.90
   74.09        2966.00           1428      126271.00    560398.10
   74.12        2966.25           1431      132015.00    586377.60
   74.15        2966.50           1435      137551.00    611457.80
   74.18        2966.75           1438      139023.00    618133.40
   74.20        2967.00           1441      139370.00    619707.40
   74.24        2967.25           1445      139499.00    620292.60
   74.26        2967.50           1448      139108.00    618518.80
   74.29        2967.75           1452      136970.00    608823.70
   74.32        2968.00           1455      133243.00    591937.40
   74.35        2968.25           1458      127977.00    568109.50
   74.38        2968.50           1462      120333.00    533586.70
   74.40        2968.75           1465      113833.00    504291.00
   74.44        2969.00           1469      105554.00    467057.20
   74.47        2969.25           1472       99549.00    440106.40
   74.49        2969.50           1475       93102.00    411223.80
   74.52        2969.75           1479       85095.00    375427.10
   74.55        2970.00           1482       78799.00    347337.50
   74.58        2970.25           1485       72919.00    321149.70
   74.61        2970.50           1489       65424.00    287833.00
   74.64        2970.75           1492       58766.00    258296.60
   74.67        2971.00           1496       50723.00    222690.70
   74.70        2971.25           1499       44805.00    196544.00
   74.73        2971.50           1502       37664.00    165052.10
   74.76        2971.75           1506       28780.00    125962.20
   74.79        2972.00           1509       21897.00     95744.08
   74.81        2972.25           1513       13419.00     58603.70
   74.84        2972.50           1516        7624.00     33267.74
   74.87        2972.75           1519        3207.00     13984.03
   74.90        2973.00           1523         580.00      2526.36
   74.93        2973.25           1526         291.00      1266.40
   74.96        2973.50           1530         163.00       708.39
   74.99        2973.75           1533         130.00       564.53
   75.02        2974.00           1536         115.00       499.14
   75.05        2974.25           1540          99.00       429.39
   75.08        2974.50           1543          68.00       294.25
   75.10        2974.75           1547          74.00       320.40
   75.13        2975.00           1550          66.00       285.53
   75.16        2975.25           1553          59.00       255.02
   75.19        2975.50           1557          63.00       272.45
   75.22        2975.75           1560          60.00       259.37
   75.24        2976.00           1564          58.00       250.66
   75.28        2976.25           1567          63.00       272.45
   75.30        2976.50           1570          67.00       289.89
   75.33        2976.75           1574          62.00       268.09
   75.36        2977.00           1577          61.00       263.73
   75.39        2977.25           1581          56.00       241.94
   75.42        2977.50           1584          48.00       207.06
   75.44        2977.75           1587          56.00       241.94
   75.48        2978.00           1591          61.00       263.73
   75.51        2978.25           1594          58.00       250.66
   75.53        2978.50           1598          62.00       268.09
   75.56        2978.75           1601          46.00       198.34
   75.59        2979.00           1604          62.00       268.09
   75.62        2979.25           1608          61.00       263.73
   75.65        2979.50           1611          57.00       246.30
   75.68        2979.75           1614          61.00       263.73
   75.71        2980.00           1618          54.00       233.22
   75.73        2980.25           1621          60.00       259.37
   75.76        2980.50           1625          55.00       237.58
   75.80        2980.75           1628          48.00       207.06
   75.82        2981.00           1631          55.00       237.58
   75.85        2981.25           1635          55.00       237.58
   75.88        2981.50           1638          57.00       246.30
   75.91        2981.75           1642          60.00       259.37
   75.94        2982.00           1645          61.00       263.73
   75.96        2982.25           1648          56.00       241.94
   76.00        2982.50           1652          53.00       228.86
   76.03        2982.75           1655          54.00       233.22
   76.05        2983.00           1659          60.00       259.37
   76.08        2983.25           1662          58.00       250.66
   76.10        2983.50           1666          53.00       228.86
   76.13        2983.75           1669          52.00       224.50
   76.16        2984.00           1672          55.00       237.58
HS scan finished at 01:16:32
end
