************************************************************
  HS Scan of (1) Internal mercury lamp
************************************************************
Integration time is 0.2294 seconds per sample
dh131018El Arenosillo 37.1 6.73 2.98pr1000
************************************************************
Dead Time -------------------------  3.2E-08 
Number of Cycles Used -------------  4 
Starting Wavelength (Angstroms) ---  2950 
Final Wavelength (Angstoms) -------  2984 
Wavelength Increment (Angstroms) --  .25 
Filter Wheel #1 Position ---------- (1) Ground quartz diffuser (ND=2.32)
Filter Wheel #2 Position ---------- (1) Neutral Density 0.494



************************************************************
HS scan start time = 01:09:33
Dark Count =  .8 


Time (GMT)  Wavelength (Ang)  Step Number  Raw Counts  Counts/Second

   70.17        2950.00           1211          49.00       210.11
   70.39        2950.25           1215          44.00       188.32
   70.42        2950.50           1218          48.00       205.76
   70.44        2950.75           1222          53.00       227.55
   70.48        2951.00           1225          55.00       236.27
   70.50        2951.25           1228          50.00       214.47
   70.53        2951.50           1232          46.00       197.04
   70.56        2951.75           1235          47.00       201.40
   70.59        2952.00           1238          50.00       214.47
   70.62        2952.25           1242          49.00       210.11
   70.64        2952.50           1245          44.00       188.32
   70.68        2952.75           1249          51.00       218.83
   70.70        2953.00           1252          53.00       227.55
   70.73        2953.25           1255          46.00       197.04
   70.76        2953.50           1259          47.00       201.40
   70.79        2953.75           1262          47.00       201.40
   70.82        2954.00           1265          46.00       197.04
   70.84        2954.25           1269          50.00       214.47
   70.88        2954.50           1272          47.00       201.40
   70.91        2954.75           1276          49.00       210.11
   70.93        2955.00           1279          50.00       214.47
   70.96        2955.25           1282          48.00       205.76
   70.99        2955.50           1286          44.00       188.32
   71.02        2955.75           1289          49.00       210.11
   71.05        2956.00           1293          43.00       183.96
   71.08        2956.25           1296          41.00       175.24
   71.11        2956.50           1299          49.00       210.11
   71.13        2956.75           1303          51.00       218.83
   71.16        2957.00           1306          47.00       201.40
   71.19        2957.25           1309          49.00       210.11
   71.22        2957.50           1313          47.00       201.40
   71.25        2957.75           1316          48.00       205.76
   71.28        2958.00           1320          41.00       175.24
   71.31        2958.25           1323          41.00       175.24
   71.34        2958.50           1326          51.00       218.83
   71.37        2958.75           1330          54.00       231.91
   71.40        2959.00           1333          57.00       244.99
   71.42        2959.25           1336          68.00       292.94
   71.45        2959.50           1340          80.00       345.25
   71.48        2959.75           1343          94.00       406.28
   71.51        2960.00           1347         139.00       602.45
   71.54        2960.25           1350         140.00       606.81
   71.57        2960.50           1353         164.00       711.44
   71.60        2960.75           1357         187.00       811.70
   71.63        2961.00           1360         289.00      1256.37
   71.65        2961.25           1364        1067.00      4648.47
   71.69        2961.50           1367        3155.00     13755.84
   71.71        2961.75           1370        7241.00     31593.39
   71.74        2962.00           1374       14974.00     65407.90
   71.77        2962.25           1377       21119.00     92330.81
   71.80        2962.50           1380       27107.00    118610.60
   71.83        2962.75           1384       34956.00    153125.10
   71.85        2963.00           1387       40847.00    179080.00
   71.89        2963.25           1391       49475.00    217171.90
   71.91        2963.50           1394       55216.00    242569.60
   71.94        2963.75           1397       61575.00    270749.80
   71.97        2964.00           1401       70272.00    309373.80
   72.01        2964.25           1404       76692.00    337947.10
   72.03        2964.50           1408       85588.00    377627.40
   72.06        2964.75           1411       92217.00    407261.90
   72.10        2965.00           1414       98585.00    435782.90
   72.12        2965.25           1418      107063.00    473835.80
   72.15        2965.50           1421      113568.00    503096.50
   72.18        2965.75           1424      119122.00    528123.20
   72.21        2966.00           1428      127247.00    564808.00
   72.24        2966.25           1431      132100.00    586761.00
   72.27        2966.50           1435      135539.00    602336.60
   72.30        2966.75           1438      136296.00    605767.20
   72.33        2967.00           1441      136635.00    607303.80
   72.35        2967.25           1445      136655.00    607394.50
   72.38        2967.50           1448      135509.00    602200.60
   72.41        2967.75           1452      132270.00    587530.60
   72.44        2968.00           1455      127630.00    566539.40
   72.47        2968.25           1458      121707.00    539785.10
   72.50        2968.50           1462      114089.00    505442.40
   72.53        2968.75           1465      108450.00    480070.20
   72.55        2969.00           1469      100675.00    445155.10
   72.58        2969.25           1472       94910.00    419316.90
   72.61        2969.50           1475       88647.00    391295.40
   72.63        2969.75           1479       80504.00    354938.00
   72.66        2970.00           1482       74232.00    326992.20
   72.70        2970.25           1485       68303.00    300621.00
   72.73        2970.50           1489       59425.00    261216.30
   72.75        2970.75           1492       53329.00    234217.10
   72.78        2971.00           1496       45320.00    198816.20
   72.81        2971.25           1499       38746.00    169818.30
   72.84        2971.50           1502       32837.00    143799.70
   72.87        2971.75           1506       24638.00    107769.50
   72.90        2972.00           1509       18311.00     80022.43
   72.93        2972.25           1513       10376.00     45293.15
   72.95        2972.50           1516        5442.00     23737.29
   72.99        2972.75           1519        1873.00      8163.42
   73.02        2973.00           1523         403.00      1753.37
   73.04        2973.25           1526         214.00       929.41
   73.07        2973.50           1530         155.00       672.20
   73.10        2973.75           1533         131.00       567.58
   73.13        2974.00           1536         101.00       436.80
   73.16        2974.25           1540          75.00       323.46
   73.19        2974.50           1543          75.00       323.46
   73.22        2974.75           1547          66.00       284.22
   73.24        2975.00           1550          60.00       258.07
   73.27        2975.25           1553          58.00       249.35
   73.30        2975.50           1557          60.00       258.07
   73.33        2975.75           1560          57.00       244.99
   73.36        2976.00           1564          53.00       227.55
   73.39        2976.25           1567          53.00       227.55
   73.42        2976.50           1570          55.00       236.27
   73.44        2976.75           1574          55.00       236.27
   73.47        2977.00           1577          50.00       214.47
   73.50        2977.25           1581          58.00       249.35
   73.53        2977.50           1584          62.00       266.79
   73.56        2977.75           1587          56.00       240.63
   73.59        2978.00           1591          55.00       236.27
   73.62        2978.25           1594          50.00       214.47
   73.64        2978.50           1598          56.00       240.63
   73.67        2978.75           1601          59.00       253.71
   73.70        2979.00           1604          54.00       231.91
   73.73        2979.25           1608          58.00       249.35
   73.76        2979.50           1611          52.00       223.19
   73.79        2979.75           1614          60.00       258.07
   73.82        2980.00           1618          55.00       236.27
   73.85        2980.25           1621          47.00       201.40
   73.88        2980.50           1625          58.00       249.35
   73.91        2980.75           1628          58.00       249.35
   73.93        2981.00           1631          66.00       284.22
   73.96        2981.25           1635          49.00       210.11
   73.99        2981.50           1638          57.00       244.99
   74.02        2981.75           1642          55.00       236.27
   74.05        2982.00           1645          56.00       240.63
   74.07        2982.25           1648          52.00       223.19
   74.11        2982.50           1652          58.00       249.35
   74.13        2982.75           1655          54.00       231.91
   74.16        2983.00           1659          50.00       214.47
   74.19        2983.25           1662          53.00       227.55
   74.22        2983.50           1666          55.00       236.27
   74.25        2983.75           1669          48.00       205.76
   74.28        2984.00           1672          58.00       249.35
HS scan finished at 01:14:39
end
