************************************************************
  HS Scan of (1) Internal mercury lamp
************************************************************
Integration time is 0.2294 seconds per sample
dh201018El Arenosillo 37.1 6.73 2.66pr1000
************************************************************
Dead Time -------------------------  3.2E-08 
Number of Cycles Used -------------  4 
Starting Wavelength (Angstroms) ---  2950 
Final Wavelength (Angstoms) -------  2984 
Wavelength Increment (Angstroms) --  .25 
Filter Wheel #1 Position ---------- (1) Ground quartz diffuser (ND=2.32)
Filter Wheel #2 Position ---------- (1) Neutral Density 0.494



************************************************************
HS scan start time = 01:08:00
Dark Count =  .4 


Time (GMT)  Wavelength (Ang)  Step Number  Raw Counts  Counts/Second

   68.63        2950.00           1211          49.00       211.86
   68.84        2950.25           1215          50.00       216.22
   68.87        2950.50           1218          52.00       224.94
   68.90        2950.75           1222          52.00       224.94
   68.93        2951.00           1225          51.00       220.58
   68.96        2951.25           1228          58.00       251.09
   68.99        2951.50           1232          56.00       242.37
   69.01        2951.75           1235          53.00       229.30
   69.04        2952.00           1238          55.00       238.01
   69.07        2952.25           1242          56.00       242.37
   69.09        2952.50           1245          53.00       229.30
   69.12        2952.75           1249          51.00       220.58
   69.15        2953.00           1252          54.00       233.65
   69.18        2953.25           1255          44.00       190.06
   69.21        2953.50           1259          50.00       216.22
   69.23        2953.75           1262          56.00       242.37
   69.27        2954.00           1265          55.00       238.01
   69.29        2954.25           1269          50.00       216.22
   69.32        2954.50           1272          48.00       207.50
   69.35        2954.75           1276          50.00       216.22
   69.38        2955.00           1279          55.00       238.01
   69.41        2955.25           1282          58.00       251.09
   69.43        2955.50           1286          48.00       207.50
   69.46        2955.75           1289          47.00       203.14
   69.49        2956.00           1293          53.00       229.30
   69.51        2956.25           1296          54.00       233.65
   69.54        2956.50           1299          53.00       229.30
   69.57        2956.75           1303          56.00       242.37
   69.60        2957.00           1306          52.00       224.94
   69.63        2957.25           1309          55.00       238.01
   69.65        2957.50           1313          53.00       229.30
   69.69        2957.75           1316          52.00       224.94
   69.72        2958.00           1320          51.00       220.58
   69.74        2958.25           1323          59.00       255.45
   69.77        2958.50           1326          59.00       255.45
   69.81        2958.75           1330          58.00       251.09
   69.83        2959.00           1333          67.00       290.33
   69.86        2959.25           1336          65.00       281.61
   69.89        2959.50           1340          78.00       338.28
   69.91        2959.75           1343         103.00       447.26
   69.94        2960.00           1347         124.00       538.81
   69.97        2960.25           1350         141.00       612.92
   70.00        2960.50           1353         167.00       726.26
   70.03        2960.75           1357         196.00       852.68
   70.05        2961.00           1360         267.00      1162.21
   70.08        2961.25           1364         702.00      3058.71
   70.12        2961.50           1367        2056.00      8963.34
   70.14        2961.75           1370        5026.00     21922.96
   70.17        2962.00           1374       11536.00     50367.08
   70.19        2962.25           1377       17311.00     75643.21
   70.23        2962.50           1380       23287.00    101842.30
   70.25        2962.75           1384       21531.00     94139.31
   70.27        2963.00           1387       37546.00    164532.70
   70.30        2963.25           1391       45567.00    199908.60
   70.33        2963.50           1394       51258.00    225057.00
   70.36        2963.75           1397       57554.00    252926.40
   70.39        2964.00           1401       65286.00    287220.70
   70.42        2964.25           1404       71628.00    315406.30
   70.45        2964.50           1408       79486.00    350400.50
   70.48        2964.75           1411       84934.00    374708.60
   70.50        2965.00           1414       91241.00    402897.00
   70.54        2965.25           1418       99454.00    439680.80
   70.57        2965.50           1421      106126.00    469627.40
   70.59        2965.75           1424      111897.00    495576.60
   70.62        2966.00           1428      119651.00    530510.80
   70.65        2966.25           1431      125182.00    555478.00
   70.68        2966.50           1435      129783.00    576277.80
   70.71        2966.75           1438      130602.00    579983.20
   70.74        2967.00           1441      131202.00    582698.30
   70.77        2967.25           1445      131374.00    583476.60
   70.79        2967.50           1448      130771.00    580747.90
   70.82        2967.75           1452      128413.00    570081.40
   70.86        2968.00           1455      124620.00    552939.10
   70.88        2968.25           1458      119539.00    530005.60
   70.91        2968.50           1462      112268.00    497246.20
   70.93        2968.75           1465      105832.00    468306.60
   70.97        2969.00           1469       98372.00    434829.90
   71.00        2969.25           1472       92719.00    409510.10
   71.02        2969.50           1475       86657.00    382404.20
   71.05        2969.75           1479       78563.00    346286.00
   71.08        2970.00           1482       73471.00    323606.70
   71.11        2970.25           1485       67886.00    298769.60
   71.14        2970.50           1489       60121.00    264303.60
   71.17        2970.75           1492       54786.00    240667.60
   71.20        2971.00           1496       46716.00    204982.70
   71.23        2971.25           1499       40719.00    178517.40
   71.25        2971.50           1502       35268.00    154500.40
   71.29        2971.75           1506       26647.00    116592.00
   71.32        2972.00           1509       20441.00     89359.79
   71.34        2972.25           1513       12240.00     53446.17
   71.37        2972.50           1516        6948.00     30315.36
   71.40        2972.75           1519        2854.00     12444.36
   71.43        2973.00           1523         546.00      2378.56
   71.46        2973.25           1526         221.00       961.67
   71.49        2973.50           1530         158.00       687.02
   71.52        2973.75           1533         134.00       582.40
   71.54        2974.00           1536         103.00       447.26
   71.57        2974.25           1540          90.00       390.59
   71.61        2974.50           1543          77.00       333.92
   71.63        2974.75           1547          69.00       299.04
   71.66        2975.00           1550          70.00       303.40
   71.69        2975.25           1553          62.00       268.53
   71.72        2975.50           1557          67.00       290.33
   71.75        2975.75           1560          57.00       246.73
   71.77        2976.00           1564          58.00       251.09
   71.80        2976.25           1567          56.00       242.37
   71.84        2976.50           1570          63.00       272.89
   71.86        2976.75           1574          58.00       251.09
   71.89        2977.00           1577          59.00       255.45
   71.92        2977.25           1581          65.00       281.61
   71.95        2977.50           1584          61.00       264.17
   71.98        2977.75           1587          62.00       268.53
   72.00        2978.00           1591          59.00       255.45
   72.03        2978.25           1594          58.00       251.09
   72.06        2978.50           1598          61.00       264.17
   72.09        2978.75           1601          60.00       259.81
   72.12        2979.00           1604          62.00       268.53
   72.15        2979.25           1608          61.00       264.17
   72.18        2979.50           1611          61.00       264.17
   72.20        2979.75           1614          66.00       285.97
   72.23        2980.00           1618          62.00       268.53
   72.26        2980.25           1621          58.00       251.09
   72.29        2980.50           1625          60.00       259.81
   72.32        2980.75           1628          61.00       264.17
   72.35        2981.00           1631          60.00       259.81
   72.38        2981.25           1635          56.00       242.37
   72.41        2981.50           1638          59.00       255.45
   72.44        2981.75           1642          62.00       268.53
   72.47        2982.00           1645          52.00       224.94
   72.50        2982.25           1648          53.00       229.30
   72.52        2982.50           1652          55.00       238.01
   72.55        2982.75           1655          60.00       259.81
   72.58        2983.00           1659          55.00       238.01
   72.61        2983.25           1662          57.00       246.73
   72.64        2983.50           1666          62.00       268.53
   72.67        2983.75           1669          62.00       268.53
   72.70        2984.00           1672          57.00       246.73
HS scan finished at 01:13:04
end
