************************************************************
  HS Scan of (1) Internal mercury lamp
************************************************************
Integration time is 0.2294 seconds per sample
dh031118El Arenosillo 37.1 6.73 2.7pr1000
************************************************************
Dead Time -------------------------  3.2E-08 
Number of Cycles Used -------------  4 
Starting Wavelength (Angstroms) ---  2950 
Final Wavelength (Angstoms) -------  2984 
Wavelength Increment (Angstroms) --  .25 
Filter Wheel #1 Position ---------- (1) Ground quartz diffuser (ND=2.32)
Filter Wheel #2 Position ---------- (1) Neutral Density 0.494



************************************************************
HS scan start time = 01:06:50
Dark Count =  .4 


Time (GMT)  Wavelength (Ang)  Step Number  Raw Counts  Counts/Second

   67.46        2950.00           1211          49.00       211.86
   67.67        2950.25           1215          46.00       198.78
   67.70        2950.50           1218          47.00       203.14
   67.73        2950.75           1222          54.00       233.65
   67.76        2951.00           1225          48.00       207.50
   67.79        2951.25           1228          55.00       238.01
   67.82        2951.50           1232          45.00       194.42
   67.84        2951.75           1235          54.00       233.65
   67.88        2952.00           1238          50.00       216.22
   67.90        2952.25           1242          46.00       198.78
   67.92        2952.50           1245          49.00       211.86
   67.95        2952.75           1249          55.00       238.01
   67.98        2953.00           1252          57.00       246.73
   68.01        2953.25           1255          55.00       238.01
   68.03        2953.50           1259          48.00       207.50
   68.07        2953.75           1262          45.00       194.42
   68.09        2954.00           1265          50.00       216.22
   68.12        2954.25           1269          49.00       211.86
   68.15        2954.50           1272          48.00       207.50
   68.18        2954.75           1276          55.00       238.01
   68.21        2955.00           1279          53.00       229.30
   68.24        2955.25           1282          49.00       211.86
   68.27        2955.50           1286          53.00       229.30
   68.30        2955.75           1289          48.00       207.50
   68.32        2956.00           1293          45.00       194.42
   68.36        2956.25           1296          48.00       207.50
   68.38        2956.50           1299          44.00       190.06
   68.41        2956.75           1303          47.00       203.14
   68.44        2957.00           1306          50.00       216.22
   68.46        2957.25           1309          55.00       238.01
   68.49        2957.50           1313          48.00       207.50
   68.51        2957.75           1316          50.00       216.22
   68.55        2958.00           1320          45.00       194.42
   68.58        2958.25           1323          52.00       224.94
   68.60        2958.50           1326          50.00       216.22
   68.63        2958.75           1330          57.00       246.73
   68.66        2959.00           1333          58.00       251.09
   68.69        2959.25           1336          74.00       320.84
   68.72        2959.50           1340          78.00       338.28
   68.75        2959.75           1343          94.00       408.03
   68.78        2960.00           1347          96.00       416.74
   68.81        2960.25           1350         144.00       625.99
   68.84        2960.50           1353         144.00       625.99
   68.87        2960.75           1357         179.00       778.57
   68.89        2961.00           1360         249.00      1083.73
   68.92        2961.25           1364         733.00      3193.87
   68.96        2961.50           1367        2014.00      8780.15
   68.98        2961.75           1370        4808.00     20971.35
   69.01        2962.00           1374       11136.00     48617.87
   69.04        2962.25           1377       16701.00     72971.41
   69.07        2962.50           1380       22733.00     99411.65
   69.10        2962.75           1384       31411.00    137529.00
   69.12        2963.00           1387       37230.00    163140.70
   69.16        2963.25           1391       44948.00    197175.70
   69.18        2963.50           1394       51428.00    225808.90
   69.21        2963.75           1397       56396.00    247796.70
   69.25        2964.00           1401       64718.00    284698.80
   69.27        2964.25           1404       70739.00    311452.20
   69.30        2964.50           1408       78477.00    345902.70
   69.33        2964.75           1411       84278.00    371779.60
   69.36        2965.00           1414       90292.00    398652.20
   69.39        2965.25           1418       98185.00    433991.60
   69.42        2965.50           1421      104251.00    461205.80
   69.45        2965.75           1424      109342.00    484082.70
   69.48        2966.00           1428      117297.00    519897.00
   69.51        2966.25           1431      122033.00    541258.30
   69.53        2966.50           1435      126628.00    562012.00
   69.56        2966.75           1438      127853.00    567549.40
   69.59        2967.00           1441      128255.00    569367.00
   69.61        2967.25           1445      128005.00    568236.60
   69.65        2967.50           1448      127428.00    565628.00
   69.67        2967.75           1452      125439.00    556639.00
   69.70        2968.00           1455      122424.00    543023.30
   69.73        2968.25           1458      117769.00    522024.60
   69.76        2968.50           1462      110419.00    488926.60
   69.79        2968.75           1465      104857.00    463927.10
   69.81        2969.00           1469       96867.00    428085.00
   69.85        2969.25           1472       90643.00    400222.10
   69.88        2969.50           1475       84482.00    372690.40
   69.90        2969.75           1479       76808.00    338465.60
   69.94        2970.00           1482       70686.00    311216.50
   69.97        2970.25           1485       65137.00    286559.00
   69.99        2970.50           1489       57586.00    253068.20
   70.02        2970.75           1492       51826.00    227569.30
   70.06        2971.00           1496       44715.00    196147.10
   70.08        2971.25           1499       39175.00    171710.80
   70.11        2971.50           1502       33321.00    145931.00
   70.15        2971.75           1506       25344.00    110870.40
   70.17        2972.00           1509       19243.00     84108.38
   70.20        2972.25           1513       11093.00     48429.84
   70.23        2972.50           1516        5888.00     25686.32
   70.26        2972.75           1519        2176.00      9486.75
   70.28        2973.00           1523         424.00      1846.67
   70.31        2973.25           1526         207.00       900.64
   70.34        2973.50           1530         167.00       726.26
   70.37        2973.75           1533         127.00       551.88
   70.40        2974.00           1536         107.00       464.70
   70.43        2974.25           1540          89.00       386.23
   70.46        2974.50           1543          78.00       338.28
   70.48        2974.75           1547          69.00       299.04
   70.51        2975.00           1550          60.00       259.81
   70.55        2975.25           1553          63.00       272.89
   70.57        2975.50           1557          57.00       246.73
   70.60        2975.75           1560          61.00       264.17
   70.63        2976.00           1564          55.00       238.01
   70.66        2976.25           1567          61.00       264.17
   70.69        2976.50           1570          54.00       233.65
   70.71        2976.75           1574          52.00       224.94
   70.75        2977.00           1577          62.00       268.53
   70.77        2977.25           1581          59.00       255.45
   70.80        2977.50           1584          62.00       268.53
   70.83        2977.75           1587          55.00       238.01
   70.85        2978.00           1591          56.00       242.37
   70.88        2978.25           1594          55.00       238.01
   70.90        2978.50           1598          55.00       238.01
   70.94        2978.75           1601          56.00       242.37
   70.97        2979.00           1604          53.00       229.30
   70.99        2979.25           1608          48.00       207.50
   71.02        2979.50           1611          61.00       264.17
   71.06        2979.75           1614          67.00       290.33
   71.08        2980.00           1618          47.00       203.14
   71.11        2980.25           1621          54.00       233.65
   71.14        2980.50           1625          56.00       242.37
   71.17        2980.75           1628          58.00       251.09
   71.19        2981.00           1631          60.00       259.81
   71.23        2981.25           1635          53.00       229.30
   71.26        2981.50           1638          62.00       268.53
   71.28        2981.75           1642          59.00       255.45
   71.31        2982.00           1645          57.00       246.73
   71.35        2982.25           1648          54.00       233.65
   71.37        2982.50           1652          57.00       246.73
   71.40        2982.75           1655          56.00       242.37
   71.43        2983.00           1659          51.00       220.58
   71.46        2983.25           1662          51.00       220.58
   71.49        2983.50           1666          55.00       238.01
   71.51        2983.75           1669          58.00       251.09
   71.55        2984.00           1672          50.00       216.22
HS scan finished at 01:11:55
end
