************************************************************
  HS Scan of (1) Internal mercury lamp
************************************************************
Integration time is 0.2294 seconds per sample
dh271018El Arenosillo 37.1 6.73 2.86pr1000
************************************************************
Dead Time -------------------------  3.2E-08 
Number of Cycles Used -------------  4 
Starting Wavelength (Angstroms) ---  2950 
Final Wavelength (Angstoms) -------  2984 
Wavelength Increment (Angstroms) --  .25 
Filter Wheel #1 Position ---------- (1) Ground quartz diffuser (ND=2.32)
Filter Wheel #2 Position ---------- (1) Neutral Density 0.494



************************************************************
HS scan start time = 01:07:18
Dark Count =  .3 


Time (GMT)  Wavelength (Ang)  Step Number  Raw Counts  Counts/Second

   67.93        2950.00           1211          50.00       216.65
   68.14        2950.25           1215          50.00       216.65
   68.17        2950.50           1218          46.00       199.22
   68.20        2950.75           1222          50.00       216.65
   68.23        2951.00           1225          46.00       199.22
   68.26        2951.25           1228          53.00       229.73
   68.29        2951.50           1232          49.00       212.29
   68.32        2951.75           1235          48.00       207.94
   68.35        2952.00           1238          46.00       199.22
   68.37        2952.25           1242          47.00       203.58
   68.40        2952.50           1245          48.00       207.94
   68.43        2952.75           1249          47.00       203.58
   68.46        2953.00           1252          49.00       212.29
   68.49        2953.25           1255          52.00       225.37
   68.52        2953.50           1259          52.00       225.37
   68.55        2953.75           1262          48.00       207.94
   68.58        2954.00           1265          49.00       212.29
   68.60        2954.25           1269          43.00       186.14
   68.64        2954.50           1272          52.00       225.37
   68.66        2954.75           1276          50.00       216.65
   68.69        2955.00           1279          46.00       199.22
   68.72        2955.25           1282          48.00       207.94
   68.75        2955.50           1286          47.00       203.58
   68.78        2955.75           1289          42.00       181.78
   68.80        2956.00           1293          45.00       194.86
   68.84        2956.25           1296          50.00       216.65
   68.87        2956.50           1299          54.00       234.09
   68.89        2956.75           1303          31.00       133.83
   68.90        2957.00           1306          48.00       207.94
   68.93        2957.25           1309          46.00       199.22
   68.96        2957.50           1313          47.00       203.58
   68.99        2957.75           1316          49.00       212.29
   69.02        2958.00           1320          50.00       216.65
   69.05        2958.25           1323          52.00       225.37
   69.07        2958.50           1326          45.00       194.86
   69.10        2958.75           1330          55.00       238.45
   69.13        2959.00           1333          56.00       242.81
   69.16        2959.25           1336          56.00       242.81
   69.19        2959.50           1340          64.00       277.68
   69.22        2959.75           1343          90.00       391.02
   69.25        2960.00           1347         109.00       473.85
   69.28        2960.25           1350         148.00       643.87
   69.31        2960.50           1353         156.00       678.74
   69.34        2960.75           1357         181.00       787.73
   69.36        2961.00           1360         258.00      1123.41
   69.39        2961.25           1364         785.00      3421.04
   69.43        2961.50           1367        2249.00      9805.61
   69.45        2961.75           1370        5349.00     23333.46
   69.48        2962.00           1374       12354.00     53945.27
   69.51        2962.25           1377       18244.00     79731.06
   69.54        2962.50           1380       24215.00    105915.10
   69.57        2962.75           1384       32376.00    141773.80
   69.60        2963.00           1387       38776.00    169952.70
   69.63        2963.25           1391       46293.00    203115.00
   69.66        2963.50           1394       52119.00    228865.80
   69.68        2963.75           1397       58615.00    257628.30
   69.72        2964.00           1401       66653.00    293292.10
   69.75        2964.25           1404       72861.00    320892.50
   69.78        2964.50           1408       81328.00    358615.40
   69.80        2964.75           1411       87457.00    385979.10
   69.84        2965.00           1414       93556.00    413256.90
   69.87        2965.25           1418      101716.00    449827.60
   69.89        2965.50           1421      108160.00    478768.70
   69.92        2965.75           1424      113749.00    503913.70
   69.95        2966.00           1428      121512.00    538907.30
   69.98        2966.25           1431      127293.00    565018.10
   70.01        2966.50           1435      132223.00    587320.10
   70.04        2966.75           1438      134298.00    596716.50
   70.07        2967.00           1441      134627.00    598206.80
   70.10        2967.25           1445      134828.00    599117.50
   70.13        2967.50           1448      134204.00    596290.60
   70.16        2967.75           1452      132348.00    587886.00
   70.18        2968.00           1455      128661.00    571203.40
   70.21        2968.25           1458      123202.00    546536.00
   70.24        2968.50           1462      115680.00    512610.80
   70.27        2968.75           1465      109178.00    483345.70
   70.30        2969.00           1469      100988.00    446561.40
   70.33        2969.25           1472       95363.00    421347.90
   70.36        2969.50           1475       89134.00    393474.70
   70.39        2969.75           1479       81067.00    357451.20
   70.41        2970.00           1482       75012.00    330467.10
   70.45        2970.25           1485       68972.00    303596.50
   70.48        2970.50           1489       60544.00    266179.60
   70.51        2970.75           1492       54925.00    241283.50
   70.54        2971.00           1496       46702.00    204921.30
   70.57        2971.25           1499       40316.00    176740.90
   70.60        2971.50           1502       34675.00    151890.40
   70.62        2971.75           1506       25911.00    113360.30
   70.66        2972.00           1509       19947.00     87194.56
   70.68        2972.25           1513       12128.00     52956.72
   70.71        2972.50           1516        6707.00     29263.23
   70.74        2972.75           1519        2567.00     11192.76
   70.77        2973.00           1523         467.00      2034.57
   70.80        2973.25           1526         215.00       935.95
   70.82        2973.50           1530         153.00       665.66
   70.86        2973.75           1533         142.00       617.71
   70.89        2974.00           1536         118.00       513.09
   70.91        2974.25           1540          79.00       343.07
   70.94        2974.50           1543          64.00       277.68
   70.97        2974.75           1547          55.00       238.45
   71.00        2975.00           1550          63.00       273.32
   71.03        2975.25           1553          63.00       273.32
   71.06        2975.50           1557          59.00       255.89
   71.09        2975.75           1560          58.00       251.53
   71.11        2976.00           1564          56.00       242.81
   71.14        2976.25           1567          63.00       273.32
   71.17        2976.50           1570          61.00       264.61
   71.20        2976.75           1574          60.00       260.25
   71.23        2977.00           1577          57.00       247.17
   71.26        2977.25           1581          64.00       277.68
   71.29        2977.50           1584          56.00       242.81
   71.31        2977.75           1587          59.00       255.89
   71.35        2978.00           1591          54.00       234.09
   71.38        2978.25           1594          55.00       238.45
   71.40        2978.50           1598          55.00       238.45
   71.43        2978.75           1601          52.00       225.37
   71.46        2979.00           1604          58.00       251.53
   71.49        2979.25           1608          60.00       260.25
   71.52        2979.50           1611          53.00       229.73
   71.55        2979.75           1614          52.00       225.37
   71.58        2980.00           1618          55.00       238.45
   71.61        2980.25           1621          56.00       242.81
   71.63        2980.50           1625          55.00       238.45
   71.67        2980.75           1628          49.00       212.29
   71.69        2981.00           1631          53.00       229.73
   71.72        2981.25           1635          51.00       221.01
   71.75        2981.50           1638          54.00       234.09
   71.78        2981.75           1642          46.00       199.22
   71.81        2982.00           1645          58.00       251.53
   71.83        2982.25           1648          51.00       221.01
   71.87        2982.50           1652          48.00       207.94
   71.90        2982.75           1655          55.00       238.45
   71.92        2983.00           1659          52.00       225.37
   71.95        2983.25           1662          54.00       234.09
   71.98        2983.50           1666          54.00       234.09
   72.01        2983.75           1669          51.00       221.01
   72.04        2984.00           1672          49.00       212.29
HS scan finished at 01:12:25
end
