************************************************************
  HS Scan of (1) Internal mercury lamp
************************************************************
Integration time is 0.2294 seconds per sample
dh241118El Arenosillo 37.1 6.73 2.5pr1000
************************************************************
Dead Time -------------------------  3.2E-08 
Number of Cycles Used -------------  4 
Starting Wavelength (Angstroms) ---  2950 
Final Wavelength (Angstoms) -------  2984 
Wavelength Increment (Angstroms) --  .25 
Filter Wheel #1 Position ---------- (1) Ground quartz diffuser (ND=2.32)
Filter Wheel #2 Position ---------- (1) Neutral Density 0.494



************************************************************
HS scan start time = 01:10:52
Dark Count =  .2 


Time (GMT)  Wavelength (Ang)  Step Number  Raw Counts  Counts/Second

   71.48        2950.00           1211          54.00       234.53
   71.70        2950.25           1215          52.00       225.81
   71.72        2950.50           1218          50.00       217.09
   71.75        2950.75           1222          49.00       212.73
   71.78        2951.00           1225          52.00       225.81
   71.81        2951.25           1228          44.00       190.93
   71.84        2951.50           1232          58.00       251.96
   71.87        2951.75           1235          52.00       225.81
   71.90        2952.00           1238          54.00       234.53
   71.92        2952.25           1242          61.00       265.04
   71.95        2952.50           1245          50.00       217.09
   71.97        2952.75           1249          48.00       208.37
   72.01        2953.00           1252          50.00       217.09
   72.04        2953.25           1255          53.00       230.17
   72.06        2953.50           1259          48.00       208.37
   72.09        2953.75           1262          57.00       247.60
   72.12        2954.00           1265          54.00       234.53
   72.15        2954.25           1269          53.00       230.17
   72.18        2954.50           1272          54.00       234.53
   72.20        2954.75           1276          51.00       221.45
   72.24        2955.00           1279          50.00       217.09
   72.26        2955.25           1282          56.00       243.25
   72.29        2955.50           1286          57.00       247.60
   72.32        2955.75           1289          51.00       221.45
   72.35        2956.00           1293          52.00       225.81
   72.38        2956.25           1296          50.00       217.09
   72.40        2956.50           1299          55.00       238.89
   72.43        2956.75           1303          53.00       230.17
   72.47        2957.00           1306          51.00       221.45
   72.49        2957.25           1309          55.00       238.89
   72.52        2957.50           1313          53.00       230.17
   72.55        2957.75           1316          59.00       256.32
   72.58        2958.00           1320          48.00       208.37
   72.61        2958.25           1323          57.00       247.60
   72.64        2958.50           1326          59.00       256.32
   72.67        2958.75           1330          54.00       234.53
   72.70        2959.00           1333          49.00       212.73
   72.72        2959.25           1336          64.00       278.12
   72.75        2959.50           1340          76.00       330.43
   72.78        2959.75           1343          87.00       378.38
   72.81        2960.00           1347         110.00       478.65
   72.84        2960.25           1350         118.00       513.52
   72.86        2960.50           1353         151.00       657.38
   72.89        2960.75           1357         173.00       753.29
   72.92        2961.00           1360         287.00      1250.27
   72.94        2961.25           1364        1185.00      5165.63
   72.98        2961.50           1367        3061.00     13348.33
   73.00        2961.75           1370        6744.00     29425.26
   73.03        2962.00           1374       12892.00     56299.24
   73.06        2962.25           1377       18434.00     80564.02
   73.09        2962.50           1380       23951.00    104756.90
   73.12        2962.75           1384       30592.00    133928.50
   73.14        2963.00           1387       36058.00    157979.70
   73.17        2963.25           1391       43275.00    189792.60
   73.21        2963.50           1394       49050.00    215296.00
   73.23        2963.75           1397       55197.00    242488.10
   73.26        2964.00           1401       62991.00    277034.50
   73.29        2964.25           1404       69180.00    304521.50
   73.33        2964.50           1408       76842.00    338618.00
   73.35        2964.75           1411       82490.00    363800.00
   73.38        2965.00           1414       88575.00    390976.20
   73.42        2965.25           1418       96138.00    424819.70
   73.44        2965.50           1421      101202.00    447521.90
   73.47        2965.75           1424      107203.00    474467.70
   73.50        2966.00           1428      114047.00    505256.00
   73.53        2966.25           1431      113783.00    504067.20
   73.56        2966.50           1435      120872.00    536019.90
   73.59        2966.75           1438      122140.00    541742.10
   73.61        2967.00           1441      121807.00    540239.10
   73.65        2967.25           1445      122153.00    541800.90
   73.67        2967.50           1448      121520.00    538943.90
   73.70        2967.75           1452      118750.00    526448.30
   73.73        2968.00           1455      114586.00    507683.30
   73.76        2968.25           1458      109827.00    486264.70
   73.79        2968.50           1462      102597.00    453781.50
   73.81        2968.75           1465       97501.00    430926.80
   73.84        2969.00           1469       90265.00    398532.40
   73.87        2969.25           1472       85365.00    376634.10
   73.90        2969.50           1475       80470.00    354789.00
   73.93        2969.75           1479       73557.00    323990.40
   73.96        2970.00           1482       67809.00    298428.30
   73.99        2970.25           1485       62693.00    275712.20
   74.02        2970.50           1489       55063.00    241894.90
   74.05        2970.75           1492       48901.00    214637.50
   74.08        2971.00           1496       41281.00    180996.50
   74.11        2971.25           1499       35698.00    156394.50
   74.13        2971.50           1502       29781.00    130363.10
   74.16        2971.75           1506       22609.00     98868.55
   74.20        2972.00           1509       17328.00     75718.56
   74.22        2972.25           1513       10155.00     44329.63
   74.25        2972.50           1516        5740.00     25040.98
   74.28        2972.75           1519        2264.00      9871.47
   74.31        2973.00           1523         410.00      1786.50
   74.34        2973.25           1526         210.00       914.59
   74.36        2973.50           1530         167.00       727.13
   74.40        2973.75           1533         128.00       557.12
   74.42        2974.00           1536         104.00       452.49
   74.45        2974.25           1540          85.00       369.66
   74.48        2974.50           1543          80.00       347.87
   74.51        2974.75           1547          73.00       317.35
   74.54        2975.00           1550          71.00       308.63
   74.56        2975.25           1553          63.00       273.76
   74.59        2975.50           1557          61.00       265.04
   74.63        2975.75           1560          62.00       269.40
   74.65        2976.00           1564          56.00       243.25
   74.68        2976.25           1567          64.00       278.12
   74.71        2976.50           1570          57.00       247.60
   74.74        2976.75           1574          59.00       256.32
   74.77        2977.00           1577          66.00       286.84
   74.79        2977.25           1581          59.00       256.32
   74.83        2977.50           1584          64.00       278.12
   74.86        2977.75           1587          63.00       273.76
   74.88        2978.00           1591          58.00       251.96
   74.91        2978.25           1594          63.00       273.76
   74.94        2978.50           1598          59.00       256.32
   74.97        2978.75           1601          63.00       273.76
   75.00        2979.00           1604          62.00       269.40
   75.03        2979.25           1608          65.00       282.48
   75.06        2979.50           1611          52.00       225.81
   75.08        2979.75           1614          57.00       247.60
   75.11        2980.00           1618          52.00       225.81
   75.15        2980.25           1621          62.00       269.40
   75.17        2980.50           1625          57.00       247.60
   75.20        2980.75           1628          56.00       243.25
   75.23        2981.00           1631          61.00       265.04
   75.26        2981.25           1635          52.00       225.81
   75.29        2981.50           1638          58.00       251.96
   75.31        2981.75           1642          54.00       234.53
   75.34        2982.00           1645          54.00       234.53
   75.37        2982.25           1648          59.00       256.32
   75.40        2982.50           1652          55.00       238.89
   75.43        2982.75           1655          57.00       247.60
   75.46        2983.00           1659          55.00       238.89
   75.49        2983.25           1662          57.00       247.60
   75.52        2983.50           1666          58.00       251.96
   75.54        2983.75           1669          59.00       256.32
   75.58        2984.00           1672          51.00       221.45
HS scan finished at 01:15:57
end
