************************************************************
  HS Scan of (1) Internal mercury lamp
************************************************************
Integration time is 0.2294 seconds per sample
dh171118El Arenosillo 37.1 6.73 2.6pr1000
************************************************************
Dead Time -------------------------  3.2E-08 
Number of Cycles Used -------------  4 
Starting Wavelength (Angstroms) ---  2950 
Final Wavelength (Angstoms) -------  2984 
Wavelength Increment (Angstroms) --  .25 
Filter Wheel #1 Position ---------- (1) Ground quartz diffuser (ND=2.32)
Filter Wheel #2 Position ---------- (1) Neutral Density 0.494



************************************************************
HS scan start time = 01:07:17
Dark Count =  .3 


Time (GMT)  Wavelength (Ang)  Step Number  Raw Counts  Counts/Second

   67.90        2950.00           1211          48.00       207.94
   68.12        2950.25           1215          51.00       221.01
   68.14        2950.50           1218          50.00       216.65
   68.17        2950.75           1222          47.00       203.58
   68.20        2951.00           1225          40.00       173.06
   68.23        2951.25           1228          50.00       216.65
   68.26        2951.50           1232          46.00       199.22
   68.28        2951.75           1235          42.00       181.78
   68.31        2952.00           1238          49.00       212.29
   68.34        2952.25           1242          46.00       199.22
   68.37        2952.50           1245          51.00       221.01
   68.40        2952.75           1249          55.00       238.45
   68.43        2953.00           1252          55.00       238.45
   68.46        2953.25           1255          52.00       225.37
   68.49        2953.50           1259          48.00       207.94
   68.51        2953.75           1262          49.00       212.29
   68.55        2954.00           1265          46.00       199.22
   68.57        2954.25           1269          52.00       225.37
   68.60        2954.50           1272          42.00       181.78
   68.63        2954.75           1276          56.00       242.81
   68.66        2955.00           1279          51.00       221.01
   68.69        2955.25           1282          50.00       216.65
   68.71        2955.50           1286          51.00       221.01
   68.74        2955.75           1289          46.00       199.22
   68.77        2956.00           1293          55.00       238.45
   68.80        2956.25           1296          53.00       229.73
   68.83        2956.50           1299          50.00       216.65
   68.86        2956.75           1303          53.00       229.73
   68.89        2957.00           1306          51.00       221.01
   68.92        2957.25           1309          53.00       229.73
   68.94        2957.50           1313          52.00       225.37
   68.98        2957.75           1316          52.00       225.37
   69.00        2958.00           1320          52.00       225.37
   69.03        2958.25           1323          48.00       207.94
   69.06        2958.50           1326          58.00       251.53
   69.09        2958.75           1330          62.00       268.96
   69.12        2959.00           1333          63.00       273.32
   69.15        2959.25           1336          66.00       286.40
   69.18        2959.50           1340          80.00       347.43
   69.21        2959.75           1343          93.00       404.10
   69.23        2960.00           1347         108.00       469.49
   69.26        2960.25           1350         141.00       613.35
   69.29        2960.50           1353         162.00       704.90
   69.32        2960.75           1357         178.00       774.65
   69.35        2961.00           1360         216.00       940.31
   69.37        2961.25           1364         486.00      2117.41
   69.40        2961.50           1367        1588.00      6922.63
   69.44        2961.75           1370        4127.00     17999.47
   69.46        2962.00           1374       10463.00     45675.69
   69.49        2962.25           1377       16110.00     70383.72
   69.52        2962.50           1380       21561.00     94271.32
   69.55        2962.75           1384       29267.00    128103.40
   69.58        2963.00           1387       35499.00    155517.90
   69.60        2963.25           1391       42799.00    187691.90
   69.64        2963.50           1394       47670.00    209197.40
   69.67        2963.75           1397       54068.00    237489.80
   69.69        2964.00           1401       61383.00    269900.40
   69.72        2964.25           1404       66906.00    294416.00
   69.76        2964.50           1408       75124.00    330965.80
   69.79        2964.75           1411       80857.00    356514.50
   69.81        2965.00           1414       86438.00    381426.30
   69.84        2965.25           1418       94517.00    417559.30
   69.87        2965.50           1421      100801.00    445722.50
   69.90        2965.75           1424      106207.00    469991.70
   69.93        2966.00           1428      113478.00    502693.50
   69.96        2966.25           1431      118277.00    524315.20
   69.99        2966.50           1435      123607.00    548364.80
   70.01        2966.75           1438      125638.00    557538.60
   70.04        2967.00           1441      126256.00    560331.10
   70.07        2967.25           1445      126515.00    561501.60
   70.10        2967.50           1448      126344.00    560728.90
   70.13        2967.75           1452      124994.00    554629.10
   70.16        2968.00           1455      122023.00    541213.60
   70.19        2968.25           1458      117259.00    519726.20
   70.22        2968.50           1462      109712.00    485747.10
   70.24        2968.75           1465      104164.00    460815.60
   70.27        2969.00           1469       96900.00    428233.30
   70.30        2969.25           1472       91606.00    404530.30
   70.33        2969.50           1475       85991.00    379429.60
   70.36        2969.75           1479       78511.00    346054.70
   70.39        2970.00           1482       73332.00    322988.50
   70.42        2970.25           1485       68189.00    300116.50
   70.45        2970.50           1489       60731.00    267008.90
   70.47        2970.75           1492       55447.00    243594.60
   70.51        2971.00           1496       47251.00    207346.40
   70.54        2971.25           1499       41481.00    181878.10
   70.56        2971.50           1502       36065.00    158010.10
   70.59        2971.75           1506       28476.00    124627.20
   70.62        2972.00           1509       22769.00     99570.02
   70.65        2972.25           1513       15145.00     66158.66
   70.68        2972.50           1516       10332.00     45102.98
   70.71        2972.75           1519        5760.00     25127.87
   70.74        2973.00           1523        1593.00      6944.44
   70.76        2973.25           1526         421.00      1834.02
   70.79        2973.50           1530         173.00       752.85
   70.82        2973.75           1533         132.00       574.12
   70.85        2974.00           1536         104.00       452.06
   70.88        2974.25           1540          93.00       404.10
   70.90        2974.50           1543          73.00       316.92
   70.94        2974.75           1547          71.00       308.20
   70.96        2975.00           1550          63.00       273.32
   70.99        2975.25           1553          62.00       268.96
   71.02        2975.50           1557          50.00       216.65
   71.05        2975.75           1560          64.00       277.68
   71.08        2976.00           1564          56.00       242.81
   71.10        2976.25           1567          59.00       255.89
   71.14        2976.50           1570          60.00       260.25
   71.17        2976.75           1574          60.00       260.25
   71.20        2977.00           1577          64.00       277.68
   71.22        2977.25           1581          64.00       277.68
   71.25        2977.50           1584          50.00       216.65
   71.28        2977.75           1587          50.00       216.65
   71.31        2978.00           1591          53.00       229.73
   71.34        2978.25           1594          66.00       286.40
   71.37        2978.50           1598          61.00       264.61
   71.40        2978.75           1601          57.00       247.17
   71.42        2979.00           1604          57.00       247.17
   71.45        2979.25           1608          63.00       273.32
   71.48        2979.50           1611          63.00       273.32
   71.51        2979.75           1614          58.00       251.53
   71.54        2980.00           1618          64.00       277.68
   71.57        2980.25           1621          50.00       216.65
   71.60        2980.50           1625          55.00       238.45
   71.62        2980.75           1628          53.00       229.73
   71.65        2981.00           1631          62.00       268.96
   71.68        2981.25           1635          60.00       260.25
   71.71        2981.50           1638          51.00       221.01
   71.74        2981.75           1642          55.00       238.45
   71.76        2982.00           1645          49.00       212.29
   71.80        2982.25           1648          57.00       247.17
   71.83        2982.50           1652          55.00       238.45
   71.85        2982.75           1655          60.00       260.25
   71.88        2983.00           1659          52.00       225.37
   71.91        2983.25           1662          55.00       238.45
   71.94        2983.50           1666          54.00       234.09
   71.97        2983.75           1669          59.00       255.89
   72.00        2984.00           1672          60.00       260.25
HS scan finished at 01:12:22
end
