************************************************************
  HS Scan of (1) Internal mercury lamp
************************************************************
Integration time is 0.2294 seconds per sample
dh011218El Arenosillo 37.1 6.73 2.41pr1000
************************************************************
Dead Time -------------------------  3.2E-08 
Number of Cycles Used -------------  4 
Starting Wavelength (Angstroms) ---  2950 
Final Wavelength (Angstoms) -------  2984 
Wavelength Increment (Angstroms) --  .25 
Filter Wheel #1 Position ---------- (1) Ground quartz diffuser (ND=2.32)
Filter Wheel #2 Position ---------- (1) Neutral Density 0.494



************************************************************
HS scan start time = 01:10:52
Dark Count =  .2 


Time (GMT)  Wavelength (Ang)  Step Number  Raw Counts  Counts/Second

   71.48        2950.00           1211          51.00       221.45
   71.70        2950.25           1215          57.00       247.60
   71.73        2950.50           1218          59.00       256.32
   71.75        2950.75           1222          57.00       247.60
   71.78        2951.00           1225          54.00       234.53
   71.81        2951.25           1228          52.00       225.81
   71.84        2951.50           1232          53.00       230.17
   71.87        2951.75           1235          52.00       225.81
   71.90        2952.00           1238          45.00       195.29
   71.93        2952.25           1242          50.00       217.09
   71.96        2952.50           1245          56.00       243.25
   71.98        2952.75           1249          50.00       217.09
   72.02        2953.00           1252          58.00       251.96
   72.04        2953.25           1255          55.00       238.89
   72.07        2953.50           1259          59.00       256.32
   72.10        2953.75           1262          51.00       221.45
   72.13        2954.00           1265          53.00       230.17
   72.16        2954.25           1269          54.00       234.53
   72.18        2954.50           1272          55.00       238.89
   72.21        2954.75           1276          55.00       238.89
   72.25        2955.00           1279          51.00       221.45
   72.27        2955.25           1282          60.00       260.68
   72.30        2955.50           1286          50.00       217.09
   72.33        2955.75           1289          57.00       247.60
   72.36        2956.00           1293          49.00       212.73
   72.39        2956.25           1296          53.00       230.17
   72.41        2956.50           1299          51.00       221.45
   72.45        2956.75           1303          55.00       238.89
   72.48        2957.00           1306          49.00       212.73
   72.50        2957.25           1309          48.00       208.37
   72.53        2957.50           1313          47.00       204.01
   72.56        2957.75           1316          56.00       243.25
   72.59        2958.00           1320          57.00       247.60
   72.62        2958.25           1323          56.00       243.25
   72.65        2958.50           1326          59.00       256.32
   72.68        2958.75           1330          58.00       251.96
   72.70        2959.00           1333          67.00       291.20
   72.73        2959.25           1336          70.00       304.28
   72.77        2959.50           1340          80.00       347.87
   72.79        2959.75           1343          97.00       421.98
   72.82        2960.00           1347         111.00       483.01
   72.85        2960.25           1350         159.00       692.26
   72.88        2960.50           1353         153.00       666.10
   72.91        2960.75           1357         178.00       775.08
   72.93        2961.00           1360         221.00       962.54
   72.97        2961.25           1364         719.00      3133.71
   72.99        2961.50           1367        2040.00      8894.42
   73.02        2961.75           1370        4844.00     21129.36
   73.04        2962.00           1374       11118.00     48540.03
   73.08        2962.25           1377       16580.00     72442.38
   73.11        2962.50           1380       22044.00     96390.14
   73.13        2962.75           1384       29214.00    127870.90
   73.16        2963.00           1387       34746.00    152203.30
   73.19        2963.25           1391       41679.00    182751.80
   73.22        2963.50           1394       47471.00    208318.70
   73.25        2963.75           1397       53061.00    233033.80
   73.28        2964.00           1401       60280.00    265009.50
   73.30        2964.25           1404       65821.00    289597.20
   73.33        2964.50           1408       73173.00    322281.30
   73.36        2964.75           1411       78608.00    346487.50
   73.39        2965.00           1414       83956.00    370343.00
   73.42        2965.25           1418       91012.00    401873.50
   73.45        2965.50           1421       96830.00    427920.00
   73.47        2965.75           1424      102166.00    451847.30
   73.51        2966.00           1428      109434.00    484497.30
   73.54        2966.25           1431      113952.00    504828.20
   73.56        2966.50           1435      118511.00    525370.60
   73.59        2966.75           1438      119849.00    531404.80
   73.62        2967.00           1441      120292.00    533403.10
   73.65        2967.25           1445      120125.00    532649.80
   73.67        2967.50           1448      119709.00    530773.30
   73.71        2967.75           1452      117370.00    520226.90
   73.74        2968.00           1455      114010.00    505089.40
   73.76        2968.25           1458      109264.00    483732.80
   73.79        2968.50           1462      102335.00    452605.70
   73.82        2968.75           1465       96774.00    427669.20
   73.85        2969.00           1469       89874.00    396783.90
   73.88        2969.25           1472       84279.00    371784.90
   73.90        2969.50           1475       79150.00    348903.50
   73.94        2969.75           1479       71920.00    316706.10
   73.96        2970.00           1482       65912.00    290001.40
   73.99        2970.25           1485       61063.00    268481.60
   74.02        2970.50           1489       54348.00    238729.60
   74.05        2970.75           1492       48802.00    214199.90
   74.08        2971.00           1496       42178.00    184952.80
   74.11        2971.25           1499       36567.00    160221.30
   74.14        2971.50           1502       30659.00    134223.10
   74.17        2971.75           1506       23071.00    100895.40
   74.20        2972.00           1509       17601.00     76914.45
   74.22        2972.25           1513        9863.00     43053.17
   74.26        2972.50           1516        5131.00     22382.20
   74.28        2972.75           1519        1834.00      7995.94
   74.31        2973.00           1523         369.00      1607.75
   74.34        2973.25           1526         193.00       840.48
   74.37        2973.50           1530         150.00       653.02
   74.40        2973.75           1533         127.00       552.76
   74.42        2974.00           1536         112.00       487.37
   74.45        2974.25           1540          81.00       352.23
   74.49        2974.50           1543          76.00       330.43
   74.51        2974.75           1547          64.00       278.12
   74.54        2975.00           1550          64.00       278.12
   74.57        2975.25           1553          58.00       251.96
   74.60        2975.50           1557          60.00       260.68
   74.62        2975.75           1560          63.00       273.76
   74.65        2976.00           1564          62.00       269.40
   74.69        2976.25           1567          65.00       282.48
   74.71        2976.50           1570          56.00       243.25
   74.74        2976.75           1574          69.00       299.92
   74.77        2977.00           1577          74.00       321.71
   74.80        2977.25           1581          61.00       265.04
   74.83        2977.50           1584          57.00       247.60
   74.85        2977.75           1587          64.00       278.12
   74.89        2978.00           1591          59.00       256.32
   74.91        2978.25           1594          52.00       225.81
   74.94        2978.50           1598          60.00       260.68
   74.97        2978.75           1601          63.00       273.76
   75.00        2979.00           1604          62.00       269.40
   75.03        2979.25           1608          71.00       308.63
   75.05        2979.50           1611          58.00       251.96
   75.08        2979.75           1614          58.00       251.96
   75.11        2980.00           1618          58.00       251.96
   75.14        2980.25           1621          55.00       238.89
   75.17        2980.50           1625          64.00       278.12
   75.19        2980.75           1628          64.00       278.12
   75.22        2981.00           1631          59.00       256.32
   75.25        2981.25           1635          61.00       265.04
   75.27        2981.50           1638          62.00       269.40
   75.31        2981.75           1642          52.00       225.81
   75.33        2982.00           1645          59.00       256.32
   75.36        2982.25           1648          52.00       225.81
   75.39        2982.50           1652          54.00       234.53
   75.42        2982.75           1655          66.00       286.84
   75.45        2983.00           1659          58.00       251.96
   75.47        2983.25           1662          50.00       217.09
   75.50        2983.50           1666          52.00       225.81
   75.54        2983.75           1669          54.00       234.53
   75.56        2984.00           1672          59.00       256.32
HS scan finished at 01:15:56
end
