************************************************************
  HS Scan of (1) Internal mercury lamp
************************************************************
Integration time is 0.2294 seconds per sample
dh151218El Arenosillo 37.1 6.73 2.39pr1000
************************************************************
Dead Time -------------------------  3.2E-08 
Number of Cycles Used -------------  4 
Starting Wavelength (Angstroms) ---  2950 
Final Wavelength (Angstoms) -------  2984 
Wavelength Increment (Angstroms) --  .25 
Filter Wheel #1 Position ---------- (1) Ground quartz diffuser (ND=2.32)
Filter Wheel #2 Position ---------- (1) Neutral Density 0.494



************************************************************
HS scan start time = 01:19:04
Dark Count =  .2 


Time (GMT)  Wavelength (Ang)  Step Number  Raw Counts  Counts/Second

   79.69        2950.00           1211          58.00       251.96
   79.90        2950.25           1215          53.00       230.17
   79.93        2950.50           1218          48.00       208.37
   79.96        2950.75           1222          56.00       243.25
   79.99        2951.00           1225          55.00       238.89
   80.02        2951.25           1228          51.00       221.45
   80.04        2951.50           1232          50.00       217.09
   80.08        2951.75           1235          52.00       225.81
   80.10        2952.00           1238          53.00       230.17
   80.13        2952.25           1242          54.00       234.53
   80.16        2952.50           1245          57.00       247.60
   80.19        2952.75           1249          57.00       247.60
   80.22        2953.00           1252          62.00       269.40
   80.24        2953.25           1255          52.00       225.81
   80.28        2953.50           1259          51.00       221.45
   80.31        2953.75           1262          54.00       234.53
   80.33        2954.00           1265          52.00       225.81
   80.37        2954.25           1269          56.00       243.25
   80.39        2954.50           1272          63.00       273.76
   80.42        2954.75           1276          53.00       230.17
   80.45        2955.00           1279          56.00       243.25
   80.48        2955.25           1282          55.00       238.89
   80.51        2955.50           1286          55.00       238.89
   80.54        2955.75           1289          52.00       225.81
   80.57        2956.00           1293          57.00       247.60
   80.60        2956.25           1296          55.00       238.89
   80.62        2956.50           1299          60.00       260.68
   80.66        2956.75           1303          55.00       238.89
   80.68        2957.00           1306          62.00       269.40
   80.71        2957.25           1309          49.00       212.73
   80.74        2957.50           1313          54.00       234.53
   80.77        2957.75           1316          60.00       260.68
   80.80        2958.00           1320          53.00       230.17
   80.83        2958.25           1323          53.00       230.17
   80.86        2958.50           1326          52.00       225.81
   80.89        2958.75           1330          59.00       256.32
   80.91        2959.00           1333          62.00       269.40
   80.95        2959.25           1336          67.00       291.20
   80.97        2959.50           1340          73.00       317.35
   81.00        2959.75           1343          93.00       404.54
   81.03        2960.00           1347         124.00       539.68
   81.06        2960.25           1350         125.00       544.04
   81.09        2960.50           1353         165.00       718.41
   81.12        2960.75           1357         173.00       753.29
   81.15        2961.00           1360         256.00      1115.12
   81.18        2961.25           1364         863.00      3761.57
   81.21        2961.50           1367        2499.00     10896.57
   81.24        2961.75           1370        5309.00     23159.27
   81.27        2962.00           1374       11199.00     48894.23
   81.29        2962.25           1377       16667.00     72823.40
   81.32        2962.50           1380       22055.00     96438.39
   81.35        2962.75           1384       29062.00    127202.90
   81.38        2963.00           1387       34491.00    151080.90
   81.41        2963.25           1391       42295.00    185468.90
   81.44        2963.50           1394       47564.00    208729.60
   81.47        2963.75           1397       53743.00    236051.90
   81.50        2964.00           1401       62279.00    273875.40
   81.53        2964.25           1404       67157.00    295531.50
   81.56        2964.50           1408       75150.00    331082.00
   81.59        2964.75           1411       81369.00    358798.70
   81.62        2965.00           1414       86955.00    383736.50
   81.65        2965.25           1418       94769.00    418688.10
   81.68        2965.50           1421      100111.00    442628.00
   81.70        2965.75           1424      105852.00    468397.20
   81.74        2966.00           1428      112821.00    499736.20
   81.76        2966.25           1431      117029.00    518689.90
   81.79        2966.50           1435      121186.00    537436.70
   81.82        2966.75           1438      121782.00    540126.30
   81.85        2967.00           1441      122136.00    541724.10
   81.88        2967.25           1445      122265.00    542306.30
   81.91        2967.50           1448      120700.00    535243.80
   81.94        2967.75           1452      119363.00    529212.70
   81.97        2968.00           1455      115236.00    510611.00
   81.99        2968.25           1458      110471.00    489161.40
   82.03        2968.50           1462      103330.00    457071.70
   82.05        2968.75           1465       98123.00    433714.60
   82.08        2969.00           1469       91385.00    403542.00
   82.11        2969.25           1472       85902.00    379032.50
   82.14        2969.50           1475       81019.00    357237.50
   82.17        2969.75           1479       73876.00    325410.20
   82.20        2970.00           1482       68370.00    300921.30
   82.23        2970.25           1485       62546.00    275060.00
   82.26        2970.50           1489       54834.00    240881.00
   82.28        2970.75           1492       49066.00    215366.70
   82.32        2971.00           1496       41761.00    183113.40
   82.35        2971.25           1499       35834.00    156993.40
   82.37        2971.50           1502       30105.00    131787.40
   82.41        2971.75           1506       22954.00    100382.10
   82.44        2972.00           1509       17523.00     76572.76
   82.46        2972.25           1513       10597.00     46261.99
   82.49        2972.50           1516        5956.00     25984.11
   82.52        2972.75           1519        2398.00     10455.98
   82.55        2973.00           1523         434.00      1891.13
   82.58        2973.25           1526         210.00       914.59
   82.61        2973.50           1530         152.00       661.74
   82.64        2973.75           1533         139.00       605.07
   82.66        2974.00           1536         122.00       530.96
   82.70        2974.25           1540          82.00       356.59
   82.72        2974.50           1543          77.00       334.79
   82.75        2974.75           1547          71.00       308.63
   82.78        2975.00           1550          68.00       295.56
   82.81        2975.25           1553          65.00       282.48
   82.84        2975.50           1557          69.00       299.92
   82.86        2975.75           1560          63.00       273.76
   82.90        2976.00           1564          70.00       304.28
   82.93        2976.25           1567          61.00       265.04
   82.95        2976.50           1570          57.00       247.60
   82.99        2976.75           1574          58.00       251.96
   83.01        2977.00           1577          62.00       269.40
   83.04        2977.25           1581          58.00       251.96
   83.07        2977.50           1584          62.00       269.40
   83.10        2977.75           1587          62.00       269.40
   83.13        2978.00           1591          62.00       269.40
   83.15        2978.25           1594          64.00       278.12
   83.19        2978.50           1598          55.00       238.89
   83.21        2978.75           1601          62.00       269.40
   83.24        2979.00           1604          64.00       278.12
   83.27        2979.25           1608          62.00       269.40
   83.30        2979.50           1611          57.00       247.60
   83.33        2979.75           1614          63.00       273.76
   83.36        2980.00           1618          59.00       256.32
   83.39        2980.25           1621          53.00       230.17
   83.41        2980.50           1625          58.00       251.96
   83.44        2980.75           1628          58.00       251.96
   83.47        2981.00           1631          57.00       247.60
   83.50        2981.25           1635          55.00       238.89
   83.53        2981.50           1638          59.00       256.32
   83.56        2981.75           1642          62.00       269.40
   83.59        2982.00           1645          59.00       256.32
   83.62        2982.25           1648          63.00       273.76
   83.65        2982.50           1652          58.00       251.96
   83.68        2982.75           1655          62.00       269.40
   83.70        2983.00           1659          56.00       243.25
   83.73        2983.25           1662          55.00       238.89
   83.76        2983.50           1666          56.00       243.25
   83.79        2983.75           1669          59.00       256.32
   83.82        2984.00           1672          58.00       251.96
HS scan finished at 01:24:12
end
