************************************************************
  HS Scan of (1) Internal mercury lamp
************************************************************
Integration time is 0.2294 seconds per sample
dh081218El Arenosillo 37.1 6.73 2.5pr1000
************************************************************
Dead Time -------------------------  3.2E-08 
Number of Cycles Used -------------  4 
Starting Wavelength (Angstroms) ---  2950 
Final Wavelength (Angstoms) -------  2984 
Wavelength Increment (Angstroms) --  .25 
Filter Wheel #1 Position ---------- (1) Ground quartz diffuser (ND=2.32)
Filter Wheel #2 Position ---------- (1) Neutral Density 0.494



************************************************************
HS scan start time = 01:15:46
Dark Count =  .1 


Time (GMT)  Wavelength (Ang)  Step Number  Raw Counts  Counts/Second

   76.40        2950.00           1211          59.00       256.76
   76.61        2950.25           1215          48.00       208.81
   76.64        2950.50           1218          55.00       239.32
   76.67        2950.75           1222          44.00       191.37
   76.70        2951.00           1225          49.00       213.17
   76.73        2951.25           1228          45.00       195.73
   76.76        2951.50           1232          46.00       200.09
   76.78        2951.75           1235          53.00       230.60
   76.82        2952.00           1238          53.00       230.60
   76.84        2952.25           1242          52.00       226.24
   76.87        2952.50           1245          53.00       230.60
   76.90        2952.75           1249          52.00       226.24
   76.93        2953.00           1252          54.00       234.96
   76.96        2953.25           1255          48.00       208.81
   76.99        2953.50           1259          52.00       226.24
   77.02        2953.75           1262          55.00       239.32
   77.05        2954.00           1265          49.00       213.17
   77.07        2954.25           1269          52.00       226.24
   77.10        2954.50           1272          58.00       252.40
   77.13        2954.75           1276          52.00       226.24
   77.16        2955.00           1279          52.00       226.24
   77.19        2955.25           1282          54.00       234.96
   77.22        2955.50           1286          55.00       239.32
   77.25        2955.75           1289          51.00       221.88
   77.28        2956.00           1293          50.00       217.53
   77.30        2956.25           1296          47.00       204.45
   77.34        2956.50           1299          55.00       239.32
   77.36        2956.75           1303          56.00       243.68
   77.39        2957.00           1306          58.00       252.40
   77.42        2957.25           1309          46.00       200.09
   77.45        2957.50           1313          55.00       239.32
   77.48        2957.75           1316          49.00       213.17
   77.50        2958.00           1320          49.00       213.17
   77.54        2958.25           1323          49.00       213.17
   77.56        2958.50           1326          54.00       234.96
   77.59        2958.75           1330          57.00       248.04
   77.62        2959.00           1333          65.00       282.91
   77.65        2959.25           1336          66.00       287.27
   77.68        2959.50           1340          71.00       309.07
   77.71        2959.75           1343          86.00       374.46
   77.74        2960.00           1347         101.00       439.85
   77.77        2960.25           1350         136.00       592.43
   77.80        2960.50           1353         155.00       675.25
   77.82        2960.75           1357         177.00       771.16
   77.86        2961.00           1360         265.00      1154.79
   77.88        2961.25           1364         954.00      4158.79
   77.91        2961.50           1367        2751.00     11996.32
   77.94        2961.75           1370        6095.00     26591.49
   77.97        2962.00           1374       12850.00     56115.94
   78.00        2962.25           1377       18528.00     80976.35
   78.03        2962.50           1380       24171.00    105722.80
   78.06        2962.75           1384       31727.00    138920.00
   78.09        2963.00           1387       36724.00    160913.20
   78.11        2963.25           1391       43986.00    192930.70
   78.14        2963.50           1394       49429.00    216971.60
   78.17        2963.75           1397       55483.00    243754.90
   78.20        2964.00           1401       63035.00    277230.10
   78.23        2964.25           1404       68672.00    302264.00
   78.27        2964.50           1408       76889.00    338827.80
   78.29        2964.75           1411       83062.00    366353.00
   78.32        2965.00           1414       88875.00    392317.70
   78.35        2965.25           1418       96946.00    428440.30
   78.38        2965.50           1421      102454.00    453140.20
   78.41        2965.75           1424      108192.00    478913.40
   78.44        2966.00           1428      114782.00    508566.50
   78.47        2966.25           1431      119581.00    530196.40
   78.50        2966.50           1435      123074.00    545958.90
   78.52        2966.75           1438      124047.00    550352.60
   78.55        2967.00           1441      123880.00    549598.40
   78.58        2967.25           1445      123835.00    549395.20
   78.61        2967.50           1448      122976.00    545516.50
   78.64        2967.75           1452      120363.00    533723.90
   78.67        2968.00           1455      116451.00    516085.60
   78.70        2968.25           1458      111266.00    492738.50
   78.72        2968.50           1462      104322.00    461525.90
   78.75        2968.75           1465       98626.00    435969.80
   78.79        2969.00           1469       91780.00    405309.60
   78.81        2969.25           1472       86179.00    380270.20
   78.84        2969.50           1475       81269.00    358353.10
   78.87        2969.75           1479       74371.00    327614.10
   78.90        2970.00           1482       68969.00    303584.00
   78.93        2970.25           1485       63397.00    278836.60
   78.95        2970.50           1489       55236.00    242661.20
   78.99        2970.75           1492       49772.00    218487.80
   79.02        2971.00           1496       42288.00    185438.50
   79.04        2971.25           1499       36255.00    158847.70
   79.07        2971.50           1502       30620.00    134052.00
   79.11        2971.75           1506       23006.00    100610.70
   79.13        2972.00           1509       17335.00     75749.66
   79.16        2972.25           1513       10660.00     46537.87
   79.19        2972.50           1516        5784.00     25233.53
   79.21        2972.75           1519        2280.00      9941.70
   79.24        2973.00           1523         416.00      1813.10
   79.26        2973.25           1526         212.00       923.74
   79.30        2973.50           1530         151.00       657.82
   79.33        2973.75           1533         164.00       714.49
   79.35        2974.00           1536         113.00       492.16
   79.38        2974.25           1540          91.00       396.26
   79.41        2974.50           1543          72.00       313.43
   79.44        2974.75           1547          73.00       317.79
   79.47        2975.00           1550          63.00       274.20
   79.50        2975.25           1553          58.00       252.40
   79.53        2975.50           1557          51.00       221.88
   79.55        2975.75           1560          60.00       261.12
   79.58        2976.00           1564          59.00       256.76
   79.61        2976.25           1567          67.00       291.63
   79.64        2976.50           1570          58.00       252.40
   79.67        2976.75           1574          61.00       265.48
   79.70        2977.00           1577          65.00       282.91
   79.73        2977.25           1581          63.00       274.20
   79.75        2977.50           1584          54.00       234.96
   79.78        2977.75           1587          60.00       261.12
   79.81        2978.00           1591          60.00       261.12
   79.84        2978.25           1594          63.00       274.20
   79.87        2978.50           1598          54.00       234.96
   79.89        2978.75           1601          65.00       282.91
   79.92        2979.00           1604          50.00       217.53
   79.95        2979.25           1608          60.00       261.12
   79.97        2979.50           1611          54.00       234.96
   80.01        2979.75           1614          61.00       265.48
   80.03        2980.00           1618          66.00       287.27
   80.06        2980.25           1621          58.00       252.40
   80.09        2980.50           1625          55.00       239.32
   80.12        2980.75           1628          57.00       248.04
   80.15        2981.00           1631          61.00       265.48
   80.17        2981.25           1635          63.00       274.20
   80.21        2981.50           1638          62.00       269.84
   80.24        2981.75           1642          54.00       234.96
   80.26        2982.00           1645          54.00       234.96
   80.29        2982.25           1648          62.00       269.84
   80.32        2982.50           1652          56.00       243.68
   80.35        2982.75           1655          54.00       234.96
   80.38        2983.00           1659          56.00       243.68
   80.41        2983.25           1662          57.00       248.04
   80.44        2983.50           1666          56.00       243.68
   80.46        2983.75           1669          58.00       252.40
   80.49        2984.00           1672          60.00       261.12
HS scan finished at 01:20:52
end
