************************************************************
  HS Scan of (1) Internal mercury lamp
************************************************************
Integration time is 0.2294 seconds per sample
dh221218El Arenosillo 37.1 6.73 2.47pr1000
************************************************************
Dead Time -------------------------  3.2E-08 
Number of Cycles Used -------------  4 
Starting Wavelength (Angstroms) ---  2950 
Final Wavelength (Angstoms) -------  2984 
Wavelength Increment (Angstroms) --  .25 
Filter Wheel #1 Position ---------- (1) Ground quartz diffuser (ND=2.32)
Filter Wheel #2 Position ---------- (1) Neutral Density 0.494



************************************************************
HS scan start time = 01:22:34
Dark Count =  .3 


Time (GMT)  Wavelength (Ang)  Step Number  Raw Counts  Counts/Second

   83.19        2950.00           1211          48.00       207.94
   83.40        2950.25           1215          56.00       242.81
   83.43        2950.50           1218          54.00       234.09
   83.45        2950.75           1222          52.00       225.37
   83.49        2951.00           1225          53.00       229.73
   83.51        2951.25           1228          55.00       238.45
   83.54        2951.50           1232          47.00       203.58
   83.58        2951.75           1235          53.00       229.73
   83.60        2952.00           1238          52.00       225.37
   83.63        2952.25           1242          58.00       251.53
   83.66        2952.50           1245          54.00       234.09
   83.69        2952.75           1249          54.00       234.09
   83.72        2953.00           1252          58.00       251.53
   83.74        2953.25           1255          57.00       247.17
   83.78        2953.50           1259          54.00       234.09
   83.80        2953.75           1262          56.00       242.81
   83.83        2954.00           1265          61.00       264.61
   83.86        2954.25           1269          51.00       221.01
   83.89        2954.50           1272          56.00       242.81
   83.92        2954.75           1276          56.00       242.81
   83.95        2955.00           1279          63.00       273.32
   83.98        2955.25           1282          56.00       242.81
   84.00        2955.50           1286          55.00       238.45
   84.03        2955.75           1289          54.00       234.09
   84.06        2956.00           1293          53.00       229.73
   84.09        2956.25           1296          54.00       234.09
   84.12        2956.50           1299          52.00       225.37
   84.15        2956.75           1303          53.00       229.73
   84.18        2957.00           1306          58.00       251.53
   84.20        2957.25           1309          56.00       242.81
   84.24        2957.50           1313          56.00       242.81
   84.27        2957.75           1316          57.00       247.17
   84.29        2958.00           1320          55.00       238.45
   84.32        2958.25           1323          53.00       229.73
   84.36        2958.50           1326          61.00       264.61
   84.38        2958.75           1330          61.00       264.61
   84.41        2959.00           1333          68.00       295.12
   84.44        2959.25           1336          70.00       303.84
   84.47        2959.50           1340          82.00       356.15
   84.50        2959.75           1343         113.00       491.29
   84.53        2960.00           1347         122.00       530.52
   84.56        2960.25           1350         120.00       521.80
   84.58        2960.50           1353         161.00       700.54
   84.61        2960.75           1357         182.00       792.09
   84.64        2961.00           1360         225.00       979.54
   84.67        2961.25           1364         646.00      2814.99
   84.70        2961.50           1367        1717.00      7485.23
   84.73        2961.75           1370        4374.00     19077.47
   84.76        2962.00           1374       10248.00     44735.75
   84.78        2962.25           1377       16163.00     70615.81
   84.82        2962.50           1380       22393.00     97920.56
   84.85        2962.75           1384       30043.00    131514.40
   84.87        2963.00           1387       35523.00    155623.60
   84.90        2963.25           1391       43282.00    189823.10
   84.93        2963.50           1394       49660.00    217991.80
   84.96        2963.75           1397       55698.00    244706.00
   84.99        2964.00           1401       63245.00    278161.10
   85.02        2964.25           1404       69377.00    305396.80
   85.05        2964.50           1408       77056.00    339571.00
   85.08        2964.75           1411       82857.00    365437.30
   85.11        2965.00           1414       88975.00    392763.90
   85.14        2965.25           1418       96670.00    427202.70
   85.17        2965.50           1421      102503.00    453359.30
   85.20        2965.75           1424      108206.00    478975.50
   85.23        2966.00           1428      115789.00    513101.90
   85.25        2966.25           1431      120828.00    535821.00
   85.28        2966.50           1435      126372.00    560855.40
   85.31        2966.75           1438      128584.00    570855.20
   85.34        2967.00           1441      128905.00    572306.90
   85.37        2967.25           1445      129274.00    573975.80
   85.40        2967.50           1448      129105.00    573211.40
   85.43        2967.75           1452      127905.00    567785.00
   85.45        2968.00           1455      125193.00    555528.10
   85.48        2968.25           1458      120752.00    535478.00
   85.51        2968.50           1462      112942.00    500280.50
   85.54        2968.75           1465      107571.00    476121.20
   85.57        2969.00           1469       99961.00    441954.90
   85.60        2969.25           1472       93692.00    413865.70
   85.63        2969.50           1475       88311.00    389795.80
   85.66        2969.75           1479       80546.00    355127.50
   85.69        2970.00           1482       74502.00    328196.50
   85.72        2970.25           1485       69385.00    305432.40
   85.75        2970.50           1489       62055.00    272881.20
   85.78        2970.75           1492       55888.00    245547.40
   85.81        2971.00           1496       48701.00    213753.10
   85.84        2971.25           1499       42625.00    186924.30
   85.86        2971.50           1502       36544.00    160119.60
   85.90        2971.75           1506       28455.00    124535.00
   85.92        2972.00           1509       22678.00     99170.79
   85.95        2972.25           1513       14360.00     62722.55
   85.98        2972.50           1516        8994.00     39254.60
   86.01        2972.75           1519        4490.00     19583.76
   86.04        2973.00           1523        1000.00      4358.50
   86.07        2973.25           1526         324.00      1411.14
   86.10        2973.50           1530         174.00       757.21
   86.13        2973.75           1533         155.00       674.38
   86.15        2974.00           1536         117.00       508.73
   86.19        2974.25           1540          98.00       425.90
   86.21        2974.50           1543          81.00       351.79
   86.24        2974.75           1547          63.00       273.32
   86.27        2975.00           1550          68.00       295.12
   86.30        2975.25           1553          68.00       295.12
   86.33        2975.50           1557          62.00       268.96
   86.36        2975.75           1560          66.00       286.40
   86.39        2976.00           1564          60.00       260.25
   86.41        2976.25           1567          59.00       255.89
   86.44        2976.50           1570          57.00       247.17
   86.47        2976.75           1574          67.00       290.76
   86.50        2977.00           1577          64.00       277.68
   86.53        2977.25           1581          65.00       282.04
   86.56        2977.50           1584          63.00       273.32
   86.59        2977.75           1587          67.00       290.76
   86.61        2978.00           1591          63.00       273.32
   86.64        2978.25           1594          61.00       264.61
   86.67        2978.50           1598          59.00       255.89
   86.69        2978.75           1601          66.00       286.40
   86.72        2979.00           1604          62.00       268.96
   86.75        2979.25           1608          52.00       225.37
   86.78        2979.50           1611          61.00       264.61
   86.81        2979.75           1614          55.00       238.45
   86.84        2980.00           1618          62.00       268.96
   86.87        2980.25           1621          58.00       251.53
   86.89        2980.50           1625          63.00       273.32
   86.92        2980.75           1628          64.00       277.68
   86.96        2981.00           1631          55.00       238.45
   86.98        2981.25           1635          54.00       234.09
   87.01        2981.50           1638          62.00       268.96
   87.04        2981.75           1642          56.00       242.81
   87.07        2982.00           1645          60.00       260.25
   87.10        2982.25           1648          64.00       277.68
   87.13        2982.50           1652          60.00       260.25
   87.16        2982.75           1655          63.00       273.32
   87.18        2983.00           1659          57.00       247.17
   87.22        2983.25           1662          61.00       264.61
   87.24        2983.50           1666          56.00       242.81
   87.27        2983.75           1669          63.00       273.32
   87.30        2984.00           1672          64.00       277.68
HS scan finished at 01:27:40
end
