************************************************************
  HS Scan of (1) Internal mercury lamp
************************************************************
Integration time is 0.2294 seconds per sample
dh291218El Arenosillo 37.1 6.73 2.41pr1000
************************************************************
Dead Time -------------------------  3.2E-08 
Number of Cycles Used -------------  4 
Starting Wavelength (Angstroms) ---  2950 
Final Wavelength (Angstoms) -------  2984 
Wavelength Increment (Angstroms) --  .25 
Filter Wheel #1 Position ---------- (1) Ground quartz diffuser (ND=2.32)
Filter Wheel #2 Position ---------- (1) Neutral Density 0.494



************************************************************
HS scan start time = 01:26:01
Dark Count =  .2 


Time (GMT)  Wavelength (Ang)  Step Number  Raw Counts  Counts/Second

   86.63        2950.00           1211          52.00       225.81
   86.85        2950.25           1215          54.00       234.53
   86.88        2950.50           1218          53.00       230.17
   86.90        2950.75           1222          51.00       221.45
   86.94        2951.00           1225          54.00       234.53
   86.97        2951.25           1228          56.00       243.25
   86.99        2951.50           1232          60.00       260.68
   87.03        2951.75           1235          53.00       230.17
   87.05        2952.00           1238          57.00       247.60
   87.08        2952.25           1242          60.00       260.68
   87.11        2952.50           1245          60.00       260.68
   87.14        2952.75           1249          56.00       243.25
   87.17        2953.00           1252          56.00       243.25
   87.19        2953.25           1255          58.00       251.96
   87.23        2953.50           1259          57.00       247.60
   87.25        2953.75           1262          51.00       221.45
   87.28        2954.00           1265          62.00       269.40
   87.32        2954.25           1269          54.00       234.53
   87.34        2954.50           1272          50.00       217.09
   87.37        2954.75           1276          59.00       256.32
   87.40        2955.00           1279          59.00       256.32
   87.43        2955.25           1282          58.00       251.96
   87.46        2955.50           1286          54.00       234.53
   87.48        2955.75           1289          59.00       256.32
   87.52        2956.00           1293          55.00       238.89
   87.54        2956.25           1296          60.00       260.68
   87.57        2956.50           1299          59.00       256.32
   87.60        2956.75           1303          56.00       243.25
   87.63        2957.00           1306          59.00       256.32
   87.66        2957.25           1309          62.00       269.40
   87.69        2957.50           1313          58.00       251.96
   87.72        2957.75           1316          54.00       234.53
   87.75        2958.00           1320          62.00       269.40
   87.77        2958.25           1323          61.00       265.04
   87.81        2958.50           1326          65.00       282.48
   87.83        2958.75           1330          66.00       286.84
   87.86        2959.00           1333          61.00       265.04
   87.89        2959.25           1336          82.00       356.59
   87.92        2959.50           1340          88.00       382.74
   87.95        2959.75           1343         124.00       539.68
   87.98        2960.00           1347         132.00       574.55
   88.01        2960.25           1350         149.00       648.66
   88.03        2960.50           1353         173.00       753.29
   88.06        2960.75           1357         205.00       892.79
   88.10        2961.00           1360         244.00      1062.81
   88.12        2961.25           1364         776.00      3382.23
   88.15        2961.50           1367        2416.00     10534.50
   88.19        2961.75           1370        5557.00     24241.99
   88.21        2962.00           1374       12394.00     54120.67
   88.24        2962.25           1377       17928.00     78347.01
   88.27        2962.50           1380       24111.00    105459.10
   88.30        2962.75           1384       31955.00    139922.40
   88.33        2963.00           1387       37701.00    165216.40
   88.35        2963.25           1391       45957.00    201631.60
   88.39        2963.50           1394       51692.00    226977.50
   88.41        2963.75           1397       58528.00    257243.20
   88.44        2964.00           1401       66797.00    293932.20
   88.48        2964.25           1404       72391.00    318801.60
   88.50        2964.50           1408       80654.00    355609.60
   88.53        2964.75           1411       86331.00    380948.80
   88.56        2965.00           1414       92170.00    407054.20
   88.59        2965.25           1418      100455.00    444170.90
   88.62        2965.50           1421      106973.00    473434.00
   88.65        2965.75           1424      112875.00    499979.30
   88.68        2966.00           1428      120382.00    533809.10
   88.71        2966.25           1431      125770.00    558135.40
   88.74        2966.50           1435      130164.00    578002.30
   88.77        2966.75           1438      131601.00    584505.00
   88.80        2967.00           1441      131558.00    584310.40
   88.82        2967.25           1445      131126.00    582355.20
   88.85        2967.50           1448      130746.00    580635.60
   88.88        2967.75           1452      128771.00    571701.30
   88.91        2968.00           1455      124231.00    551183.10
   88.94        2968.25           1458      118846.00    526881.30
   88.97        2968.50           1462      111875.00    495478.40
   89.00        2968.75           1465      105502.00    466825.00
   89.02        2969.00           1469       98009.00    433203.70
   89.06        2969.25           1472       91495.00    404034.10
   89.09        2969.50           1475       85521.00    377330.80
   89.11        2969.75           1479       77913.00    343390.00
   89.14        2970.00           1482       72205.00    317974.00
   89.17        2970.25           1485       66495.00    292590.70
   89.20        2970.50           1489       59465.00    261396.20
   89.23        2970.75           1492       53497.00    234963.20
   89.26        2971.00           1496       45998.00    201812.60
   89.29        2971.25           1499       39497.00    173130.90
   89.32        2971.50           1502       33164.00    145241.10
   89.35        2971.75           1506       24874.00    108808.00
   89.38        2972.00           1509       18532.00     80993.44
   89.41        2972.25           1513       10822.00     47245.74
   89.44        2972.50           1516        5896.00     25722.12
   89.47        2972.75           1519        2187.00      9535.60
   89.49        2973.00           1523         406.00      1769.06
   89.52        2973.25           1526         192.00       836.12
   89.55        2973.50           1530         154.00       670.46
   89.58        2973.75           1533         132.00       574.55
   89.61        2974.00           1536          95.00       413.26
   89.64        2974.25           1540          88.00       382.74
   89.67        2974.50           1543          77.00       334.79
   89.70        2974.75           1547          71.00       308.63
   89.72        2975.00           1550          75.00       326.07
   89.76        2975.25           1553          78.00       339.15
   89.78        2975.50           1557          68.00       295.56
   89.81        2975.75           1560          65.00       282.48
   89.84        2976.00           1564          66.00       286.84
   89.87        2976.25           1567          61.00       265.04
   89.90        2976.50           1570          68.00       295.56
   89.93        2976.75           1574          61.00       265.04
   89.96        2977.00           1577          64.00       278.12
   89.98        2977.25           1581          63.00       273.76
   90.01        2977.50           1584          73.00       317.35
   90.04        2977.75           1587          63.00       273.76
   90.07        2978.00           1591          67.00       291.20
   90.10        2978.25           1594          56.00       243.25
   90.13        2978.50           1598          65.00       282.48
   90.16        2978.75           1601          68.00       295.56
   90.18        2979.00           1604          56.00       243.25
   90.22        2979.25           1608          63.00       273.76
   90.25        2979.50           1611          66.00       286.84
   90.27        2979.75           1614          70.00       304.28
   90.30        2980.00           1618          63.00       273.76
   90.33        2980.25           1621          61.00       265.04
   90.36        2980.50           1625          61.00       265.04
   90.39        2980.75           1628          62.00       269.40
   90.42        2981.00           1631          56.00       243.25
   90.45        2981.25           1635          67.00       291.20
   90.48        2981.50           1638          61.00       265.04
   90.51        2981.75           1642          61.00       265.04
   90.54        2982.00           1645          64.00       278.12
   90.56        2982.25           1648          58.00       251.96
   90.59        2982.50           1652          52.00       225.81
   90.62        2982.75           1655          58.00       251.96
   90.65        2983.00           1659          58.00       251.96
   90.68        2983.25           1662          73.00       317.35
   90.71        2983.50           1666          53.00       230.17
   90.74        2983.75           1669          59.00       256.32
   90.77        2984.00           1672          59.00       256.32
HS scan finished at 01:31:08
end
